2.094000764233855671e-01
2.094000764233855671e-01
2.292701566679404002e-01
2.292701566679404002e-01
2.292701566679404002e-01
2.086358425678257467e-01
2.086358425678257467e-01
2.265953381734810979e-01
2.265953381734810979e-01
2.265953381734810979e-01
2.151318303400840681e-01
2.151318303400840681e-01
2.193351165456629837e-01
2.193351165456629837e-01
2.193351165456629837e-01
2.051967902178066516e-01
2.051967902178066516e-01
2.032862055789071420e-01
2.032862055789071420e-01
2.032862055789071420e-01
2.143675964845242754e-01
2.143675964845242754e-01
2.002292701566679434e-01
2.002292701566679434e-01
2.002292701566679434e-01
2.200993504012227764e-01
2.200993504012227764e-01
2.063431410011463407e-01
2.063431410011463407e-01
2.063431410011463407e-01
2.143675964845242754e-01
2.143675964845242754e-01
1.994650363011081506e-01
1.994650363011081506e-01
2.067252579289262648e-01
2.067252579289262648e-01
2.067252579289262648e-01
1.990829193733282265e-01
1.990829193733282265e-01
2.055789071455865480e-01
2.055789071455865480e-01
2.055789071455865480e-01
1.960259839510890278e-01
1.960259839510890278e-01
2.094000764233855671e-01
2.094000764233855671e-01
2.094000764233855671e-01
2.094000764233855671e-01
2.094000764233855671e-01
2.151318303400840681e-01
2.151318303400840681e-01
2.151318303400840681e-01
1.983186855177684338e-01
1.983186855177684338e-01
2.036683225066870384e-01
2.036683225066870384e-01
2.036683225066870384e-01
2.109285441345051526e-01
2.109285441345051526e-01
1.967902178066488483e-01
1.967902178066488483e-01
1.967902178066488483e-01
2.006113870844478397e-01
2.006113870844478397e-01
1.933511654566297255e-01
1.933511654566297255e-01
1.933511654566297255e-01
2.055789071455865480e-01
2.055789071455865480e-01
2.063431410011463407e-01
2.063431410011463407e-01
2.063431410011463407e-01
1.910584638899503196e-01
1.910584638899503196e-01
1.910584638899503196e-01
1.910584638899503196e-01
1.910584638899503196e-01
1.937332823844096219e-01
1.937332823844096219e-01
1.967902178066488483e-01
1.967902178066488483e-01
1.967902178066488483e-01
2.040504394344669348e-01
2.040504394344669348e-01
1.872372946121513282e-01
1.872372946121513282e-01
1.872372946121513282e-01
1.876194115399312246e-01
1.876194115399312246e-01
1.994650363011081506e-01
1.994650363011081506e-01
1.994650363011081506e-01
1.880015284677111209e-01
1.880015284677111209e-01
1.922048146732900364e-01
1.922048146732900364e-01
1.922048146732900364e-01
1.987008024455483302e-01
1.987008024455483302e-01
1.837982422621322054e-01
1.837982422621322054e-01
1.837982422621322054e-01
1.860909438288116113e-01
1.860909438288116113e-01
1.937332823844096219e-01
1.937332823844096219e-01
1.937332823844096219e-01
2.002292701566679434e-01
2.002292701566679434e-01
1.853267099732518186e-01
1.853267099732518186e-01
1.853267099732518186e-01
1.948796331677493388e-01
1.948796331677493388e-01
2.025219717233473493e-01
2.025219717233473493e-01
2.025219717233473493e-01
1.757737867787542985e-01
1.757737867787542985e-01
1.975544516622086411e-01
1.975544516622086411e-01
1.975544516622086411e-01
1.922048146732900364e-01
1.922048146732900364e-01
1.853267099732518186e-01
1.853267099732518186e-01
1.853267099732518186e-01
1.987008024455483302e-01
1.987008024455483302e-01
1.795949560565533176e-01
1.795949560565533176e-01
1.795949560565533176e-01
1.837982422621322054e-01
1.837982422621322054e-01
1.925869316010699328e-01
1.925869316010699328e-01
1.925869316010699328e-01
1.964081008788689242e-01
1.964081008788689242e-01
1.849445930454719222e-01
1.849445930454719222e-01
1.849445930454719222e-01
1.822697745510126199e-01
1.822697745510126199e-01
1.994650363011081506e-01
1.994650363011081506e-01
1.994650363011081506e-01
1.880015284677111209e-01
1.880015284677111209e-01
1.780664883454337044e-01
1.780664883454337044e-01
1.780664883454337044e-01
1.765380206343140912e-01
1.765380206343140912e-01
2.013756209400076325e-01
2.013756209400076325e-01
2.013756209400076325e-01
2.009935040122277361e-01
2.009935040122277361e-01
1.975544516622086411e-01
1.975544516622086411e-01
1.975544516622086411e-01
1.975544516622086411e-01
1.975544516622086411e-01
2.002292701566679434e-01
2.002292701566679434e-01
2.002292701566679434e-01
1.975544516622086411e-01
1.975544516622086411e-01
1.891478792510508100e-01
1.891478792510508100e-01
1.891478792510508100e-01
1.857088269010317150e-01
1.857088269010317150e-01
1.761559037065341948e-01
1.761559037065341948e-01
1.761559037065341948e-01
1.811234237676729031e-01
1.811234237676729031e-01
1.773022544898739117e-01
1.773022544898739117e-01
1.773022544898739117e-01
1.960259839510890278e-01
1.960259839510890278e-01
1.795949560565533176e-01
1.795949560565533176e-01
1.795949560565533176e-01
1.811234237676729031e-01
1.811234237676729031e-01
1.929690485288498292e-01
1.929690485288498292e-01
1.929690485288498292e-01
1.773022544898739117e-01
1.773022544898739117e-01
1.727168513565150998e-01
1.727168513565150998e-01
1.727168513565150998e-01
1.902942300343905269e-01
1.902942300343905269e-01
1.929690485288498292e-01
1.929690485288498292e-01
1.929690485288498292e-01
1.708062667176155902e-01
1.708062667176155902e-01
1.811234237676729031e-01
1.811234237676729031e-01
1.811234237676729031e-01
1.883836453954910173e-01
1.883836453954910173e-01
1.837982422621322054e-01
1.837982422621322054e-01
1.837982422621322054e-01
1.811234237676729031e-01
1.811234237676729031e-01
1.765380206343140912e-01
1.765380206343140912e-01
1.765380206343140912e-01
1.864730607565915077e-01
1.864730607565915077e-01
1.792128391287733935e-01
1.792128391287733935e-01
1.792128391287733935e-01
1.757737867787542985e-01
1.757737867787542985e-01
1.914405808177302160e-01
1.914405808177302160e-01
1.914405808177302160e-01
1.822697745510126199e-01
1.822697745510126199e-01
1.845624761176920259e-01
1.845624761176920259e-01
1.845624761176920259e-01
2.002292701566679434e-01
2.002292701566679434e-01
2.048146732900267553e-01
2.048146732900267553e-01
1.883836453954910173e-01
1.883836453954910173e-01
1.883836453954910173e-01
1.952617500955292351e-01
1.952617500955292351e-01
1.948796331677493388e-01
1.948796331677493388e-01
1.948796331677493388e-01
2.059610240733664444e-01
2.059610240733664444e-01
2.059610240733664444e-01
2.059610240733664444e-01
2.059610240733664444e-01
2.051967902178066516e-01
2.051967902178066516e-01
2.124570118456247658e-01
2.124570118456247658e-01
2.124570118456247658e-01
2.208635842567825691e-01
2.208635842567825691e-01
2.372946121513183071e-01
2.372946121513183071e-01
2.372946121513183071e-01
2.365303782957585144e-01
2.365303782957585144e-01
2.483760030569354127e-01
2.483760030569354127e-01
2.483760030569354127e-01
2.380588460068780998e-01
2.380588460068780998e-01
2.590752770347726219e-01
2.590752770347726219e-01
2.590752770347726219e-01
2.567825754680932437e-01
2.567825754680932437e-01
2.560183416125334510e-01
2.560183416125334510e-01
2.560183416125334510e-01
2.575468093236530365e-01
2.575468093236530365e-01
2.606037447458922629e-01
2.606037447458922629e-01
2.606037447458922629e-01
2.904088651127245124e-01
2.904088651127245124e-01
2.789453572793274549e-01
2.789453572793274549e-01
2.789453572793274549e-01
2.820022927015666814e-01
2.820022927015666814e-01
3.014902560183416180e-01
3.014902560183416180e-01
3.014902560183416180e-01
3.060756591517004299e-01
3.060756591517004299e-01
3.037829575850209962e-01
3.037829575850209962e-01
3.037829575850209962e-01
2.927015666794038906e-01
2.927015666794038906e-01
3.053114252961406372e-01
3.053114252961406372e-01
3.053114252961406372e-01
3.163928162017577428e-01
3.163928162017577428e-01
3.205961024073366583e-01
3.205961024073366583e-01
3.205961024073366583e-01
3.186855177684371210e-01
3.186855177684371210e-01
3.102789453572793454e-01
3.102789453572793454e-01
3.102789453572793454e-01
3.236530378295758292e-01
3.236530378295758292e-01
3.381734810852120576e-01
3.381734810852120576e-01
3.381734810852120576e-01
3.332059610240733494e-01
3.332059610240733494e-01
3.419946503630110768e-01
3.419946503630110768e-01
3.419946503630110768e-01
3.232709209017959329e-01
3.232709209017959329e-01
3.312953763851738676e-01
3.312953763851738676e-01
3.312953763851738676e-01
3.397019487963316986e-01
3.397019487963316986e-01
3.450515857852503032e-01
3.450515857852503032e-01
3.450515857852503032e-01
3.290026748184944339e-01
3.290026748184944339e-01
3.397019487963316986e-01
3.397019487963316986e-01
3.397019487963316986e-01
3.465800534963698887e-01
3.465800534963698887e-01
3.500191058463890115e-01
3.500191058463890115e-01
3.500191058463890115e-01
3.312953763851738676e-01
3.312953763851738676e-01
3.534581581964080788e-01
3.534581581964080788e-01
3.534581581964080788e-01
3.419946503630110768e-01
3.419946503630110768e-01
3.530760412686281824e-01
3.530760412686281824e-01
3.530760412686281824e-01
3.519296904852884933e-01
3.519296904852884933e-01
3.580435613297668906e-01
3.580435613297668906e-01
3.580435613297668906e-01
3.565150936186473052e-01
3.565150936186473052e-01
3.526939243408482860e-01
3.526939243408482860e-01
3.526939243408482860e-01
3.381734810852120576e-01
3.381734810852120576e-01
3.568972105464272015e-01
3.568972105464272015e-01
3.568972105464272015e-01
3.584256782575467870e-01
3.584256782575467870e-01
3.488727550630492669e-01
3.488727550630492669e-01
3.488727550630492669e-01
3.599541459686664280e-01
3.599541459686664280e-01
3.397019487963316986e-01
3.397019487963316986e-01
3.397019487963316986e-01
3.473442873519296814e-01
3.473442873519296814e-01
3.454337027130301996e-01
3.454337027130301996e-01
3.454337027130301996e-01
3.484906381352693705e-01
3.484906381352693705e-01
3.523118074130683897e-01
3.523118074130683897e-01
3.523118074130683897e-01
3.530760412686281824e-01
3.530760412686281824e-01
3.519296904852884933e-01
3.519296904852884933e-01
3.519296904852884933e-01
3.435231180741306622e-01
3.435231180741306622e-01
3.557508597630875125e-01
3.557508597630875125e-01
3.557508597630875125e-01
3.393198318685518022e-01
3.393198318685518022e-01
3.500191058463890115e-01
3.500191058463890115e-01
3.500191058463890115e-01
3.549866259075277197e-01
3.549866259075277197e-01
3.588077951853266834e-01
3.588077951853266834e-01
3.588077951853266834e-01
3.484906381352693705e-01
3.484906381352693705e-01
3.442873519296905105e-01
3.442873519296905105e-01
3.442873519296905105e-01
3.507833397019488042e-01
3.507833397019488042e-01
3.389377149407718504e-01
3.389377149407718504e-01
3.389377149407718504e-01
3.427588842185708695e-01
3.427588842185708695e-01
3.385555980129919540e-01
3.385555980129919540e-01
3.385555980129919540e-01
3.492548719908292187e-01
3.492548719908292187e-01
3.565150936186473052e-01
3.565150936186473052e-01
3.565150936186473052e-01
3.588077951853266834e-01
3.588077951853266834e-01
3.343523118074130940e-01
3.343523118074130940e-01
3.343523118074130940e-01
3.500191058463890115e-01
3.500191058463890115e-01
3.347344287351929903e-01
3.347344287351929903e-01
3.347344287351929903e-01
3.419946503630110768e-01
3.419946503630110768e-01
3.381734810852120576e-01
3.381734810852120576e-01
3.469621704241497850e-01
3.469621704241497850e-01
3.469621704241497850e-01
3.504012227741689078e-01
3.504012227741689078e-01
3.312953763851738676e-01
3.312953763851738676e-01
3.312953763851738676e-01
3.301490256018341785e-01
3.301490256018341785e-01
3.251815055406954702e-01
3.251815055406954702e-01
3.251815055406954702e-01
3.205961024073366583e-01
3.205961024073366583e-01
3.358807795185326794e-01
3.358807795185326794e-01
3.358807795185326794e-01
3.347344287351929903e-01
3.347344287351929903e-01
3.267099732518150557e-01
3.267099732518150557e-01
3.267099732518150557e-01
3.194497516239969692e-01
3.194497516239969692e-01
3.209782193351165547e-01
3.209782193351165547e-01
3.209782193351165547e-01
3.297669086740542821e-01
3.297669086740542821e-01
3.045471914405808445e-01
3.045471914405808445e-01
3.045471914405808445e-01
3.072220099350401190e-01
3.072220099350401190e-01
3.263278563240351593e-01
3.263278563240351593e-01
3.263278563240351593e-01
3.087504776461597045e-01
3.087504776461597045e-01
3.060756591517004299e-01
3.060756591517004299e-01
3.060756591517004299e-01
3.014902560183416180e-01
3.014902560183416180e-01
3.011081390905617217e-01
3.011081390905617217e-01
3.011081390905617217e-01
2.907909820405044088e-01
2.907909820405044088e-01
3.003439052350019289e-01
3.003439052350019289e-01
3.003439052350019289e-01
3.011081390905617217e-01
3.011081390905617217e-01
2.804738249904470959e-01
2.804738249904470959e-01
2.804738249904470959e-01
2.774168895682078695e-01
2.774168895682078695e-01
2.774168895682078695e-01
2.774168895682078695e-01
2.774168895682078695e-01
2.888803974016048715e-01
2.888803974016048715e-01
2.701566679403897830e-01
2.701566679403897830e-01
2.701566679403897830e-01
2.678639663737103493e-01
2.678639663737103493e-01
2.800917080626671996e-01
2.800917080626671996e-01
2.800917080626671996e-01
2.770347726404279731e-01
2.770347726404279731e-01
2.804738249904470959e-01
2.804738249904470959e-01
2.804738249904470959e-01
2.789453572793274549e-01
2.789453572793274549e-01
2.739778372181887467e-01
2.739778372181887467e-01
2.739778372181887467e-01
2.762705387848681804e-01
2.762705387848681804e-01
2.686282002292701421e-01
2.686282002292701421e-01
2.686282002292701421e-01
2.713030187237294721e-01
2.713030187237294721e-01
2.606037447458922629e-01
2.606037447458922629e-01
2.606037447458922629e-01
2.651891478792510748e-01
2.651891478792510748e-01
2.541077569736339137e-01
2.541077569736339137e-01
2.541077569736339137e-01
2.491402369124952332e-01
2.491402369124952332e-01
2.617500955292319520e-01
2.617500955292319520e-01
2.617500955292319520e-01
2.483760030569354127e-01
2.483760030569354127e-01
2.564004585403133474e-01
2.564004585403133474e-01
2.564004585403133474e-01
2.609858616736721593e-01
2.609858616736721593e-01
2.502865876958349500e-01
2.502865876958349500e-01
2.502865876958349500e-01
2.506687046236148464e-01
2.506687046236148464e-01
2.437905999235766008e-01
2.437905999235766008e-01
2.437905999235766008e-01
2.460833014902560067e-01
2.460833014902560067e-01
2.560183416125334510e-01
2.560183416125334510e-01
2.560183416125334510e-01
2.468475353458158272e-01
2.468475353458158272e-01
2.430263660680168081e-01
2.430263660680168081e-01
2.430263660680168081e-01
2.434084829957967044e-01
2.434084829957967044e-01
2.384409629346579962e-01
2.384409629346579962e-01
2.384409629346579962e-01
2.342376767290791084e-01
2.342376767290791084e-01
2.521971723347344319e-01
2.521971723347344319e-01
2.521971723347344319e-01
2.468475353458158272e-01
2.468475353458158272e-01
2.464654184180359309e-01
2.464654184180359309e-01
2.464654184180359309e-01
2.468475353458158272e-01
2.468475353458158272e-01
2.300343905235001929e-01
2.300343905235001929e-01
2.300343905235001929e-01
2.495223538402751295e-01
2.495223538402751295e-01
2.269774551012609942e-01
2.269774551012609942e-01
2.269774551012609942e-01
2.265953381734810979e-01
2.265953381734810979e-01
2.411157814291172985e-01
2.411157814291172985e-01
2.411157814291172985e-01
2.449369507069163177e-01
2.449369507069163177e-01
2.407336645013374021e-01
2.407336645013374021e-01
2.407336645013374021e-01
2.426442491402369117e-01
2.426442491402369117e-01
2.277416889568207869e-01
2.277416889568207869e-01
2.277416889568207869e-01
2.239205196790217678e-01
2.239205196790217678e-01
2.315628582346198061e-01
2.315628582346198061e-01
2.315628582346198061e-01
2.288880397401604760e-01
2.288880397401604760e-01
2.178066488345433704e-01
2.178066488345433704e-01
2.178066488345433704e-01
2.372946121513183071e-01
2.372946121513183071e-01
2.327092090179594952e-01
2.327092090179594952e-01
2.327092090179594952e-01
2.208635842567825691e-01
2.208635842567825691e-01
2.319449751623997025e-01
2.319449751623997025e-01
2.319449751623997025e-01
2.307986243790599856e-01
2.307986243790599856e-01
2.181887657623232668e-01
2.181887657623232668e-01
2.181887657623232668e-01
2.223920519679021823e-01
2.223920519679021823e-01
2.139854795567443513e-01
2.139854795567443513e-01
2.139854795567443513e-01
2.220099350401222860e-01
2.220099350401222860e-01
2.239205196790217678e-01
2.239205196790217678e-01
2.239205196790217678e-01
2.204814673290026728e-01
2.204814673290026728e-01
2.124570118456247658e-01
2.124570118456247658e-01
2.265953381734810979e-01
2.265953381734810979e-01
2.265953381734810979e-01
2.086358425678257467e-01
2.086358425678257467e-01
2.193351165456629837e-01
2.193351165456629837e-01
2.193351165456629837e-01
2.136033626289644549e-01
2.136033626289644549e-01
2.204814673290026728e-01
2.204814673290026728e-01
2.204814673290026728e-01
2.216278181123423896e-01
2.216278181123423896e-01
2.181887657623232668e-01
2.181887657623232668e-01
2.181887657623232668e-01
2.013756209400076325e-01
2.013756209400076325e-01
2.090179594956056430e-01
2.090179594956056430e-01
2.090179594956056430e-01
2.055789071455865480e-01
2.055789071455865480e-01
2.048146732900267553e-01
2.048146732900267553e-01
2.048146732900267553e-01
2.086358425678257467e-01
2.086358425678257467e-01
2.116927779900649731e-01
2.116927779900649731e-01
2.116927779900649731e-01
2.101643102789453599e-01
2.101643102789453599e-01
2.017577378677875566e-01
2.017577378677875566e-01
2.017577378677875566e-01
2.120748949178448695e-01
2.120748949178448695e-01
1.899121131066106305e-01
1.899121131066106305e-01
1.899121131066106305e-01
1.990829193733282265e-01
1.990829193733282265e-01
1.910584638899503196e-01
1.910584638899503196e-01
1.910584638899503196e-01
1.860909438288116113e-01
1.860909438288116113e-01
1.944975162399694424e-01
1.944975162399694424e-01
1.944975162399694424e-01
1.880015284677111209e-01
1.880015284677111209e-01
1.849445930454719222e-01
1.849445930454719222e-01
1.849445930454719222e-01
1.769201375620939876e-01
1.769201375620939876e-01
1.811234237676729031e-01
1.811234237676729031e-01
1.811234237676729031e-01
1.979365685899885374e-01
1.979365685899885374e-01
1.887657623232709136e-01
1.887657623232709136e-01
1.887657623232709136e-01
1.818876576232326958e-01
1.818876576232326958e-01
1.960259839510890278e-01
1.960259839510890278e-01
1.960259839510890278e-01
1.792128391287733935e-01
1.792128391287733935e-01
1.795949560565533176e-01
1.795949560565533176e-01
1.795949560565533176e-01
1.902942300343905269e-01
1.902942300343905269e-01
1.742453190676346853e-01
1.742453190676346853e-01
1.742453190676346853e-01
1.715705005731753829e-01
1.715705005731753829e-01
1.734810852120748925e-01
1.734810852120748925e-01
1.734810852120748925e-01
1.696599159342759011e-01
1.696599159342759011e-01
1.711883836453954866e-01
1.711883836453954866e-01
1.711883836453954866e-01
1.631639281620175796e-01
1.631639281620175796e-01
1.738632021398547889e-01
1.738632021398547889e-01
1.738632021398547889e-01
1.730989682842949962e-01
1.730989682842949962e-01
1.708062667176155902e-01
1.708062667176155902e-01
1.708062667176155902e-01
1.765380206343140912e-01
1.765380206343140912e-01
1.627818112342376833e-01
1.627818112342376833e-01
1.627818112342376833e-01
1.669850974398165711e-01
1.669850974398165711e-01
1.799770729843332140e-01
1.799770729843332140e-01
1.799770729843332140e-01
1.849445930454719222e-01
1.849445930454719222e-01
1.631639281620175796e-01
1.631639281620175796e-01
1.631639281620175796e-01
1.555215896064195691e-01
1.555215896064195691e-01
1.730989682842949962e-01
1.730989682842949962e-01
1.730989682842949962e-01
1.551394726786396727e-01
1.551394726786396727e-01
1.650745128009170892e-01
1.650745128009170892e-01
1.650745128009170892e-01
1.715705005731753829e-01
1.715705005731753829e-01
1.578142911730989750e-01
1.578142911730989750e-01
1.578142911730989750e-01
1.616354604508979664e-01
1.616354604508979664e-01
1.627818112342376833e-01
1.627818112342376833e-01
1.627818112342376833e-01
1.730989682842949962e-01
1.730989682842949962e-01
1.635460450897974760e-01
1.635460450897974760e-01
1.635460450897974760e-01
1.574321742453190787e-01
1.574321742453190787e-01
1.650745128009170892e-01
1.650745128009170892e-01
1.650745128009170892e-01
1.494077187619411440e-01
1.494077187619411440e-01
1.612533435231180701e-01
1.612533435231180701e-01
1.612533435231180701e-01
1.608712265953381737e-01
1.608712265953381737e-01
1.585785250286587678e-01
1.585785250286587678e-01
1.585785250286587678e-01
1.517004203286205499e-01
1.517004203286205499e-01
1.688956820787160806e-01
1.688956820787160806e-01
1.688956820787160806e-01
1.601069927397783810e-01
1.601069927397783810e-01
1.623996943064577869e-01
1.623996943064577869e-01
1.623996943064577869e-01
1.562858234619793618e-01
1.562858234619793618e-01
1.517004203286205499e-01
1.517004203286205499e-01
1.517004203286205499e-01
1.711883836453954866e-01
1.711883836453954866e-01
1.497898356897210681e-01
1.497898356897210681e-01
1.497898356897210681e-01
1.494077187619411440e-01
1.494077187619411440e-01
1.666029805120366747e-01
1.666029805120366747e-01
1.666029805120366747e-01
1.627818112342376833e-01
1.627818112342376833e-01
1.497898356897210681e-01
1.497898356897210681e-01
1.497898356897210681e-01
1.566679403897592582e-01
1.566679403897592582e-01
1.555215896064195691e-01
1.555215896064195691e-01
1.555215896064195691e-01
1.562858234619793618e-01
1.562858234619793618e-01
1.692777990064959770e-01
1.692777990064959770e-01
1.692777990064959770e-01
1.566679403897592582e-01
1.566679403897592582e-01
1.555215896064195691e-01
1.555215896064195691e-01
1.650745128009170892e-01
1.650745128009170892e-01
1.650745128009170892e-01
1.490256018341612476e-01
1.490256018341612476e-01
1.623996943064577869e-01
1.623996943064577869e-01
1.623996943064577869e-01
1.425296140619029539e-01
1.425296140619029539e-01
1.635460450897974760e-01
1.635460450897974760e-01
1.635460450897974760e-01
1.425296140619029539e-01
1.425296140619029539e-01
1.524646541841803704e-01
1.524646541841803704e-01
1.524646541841803704e-01
1.413832632785632371e-01
1.413832632785632371e-01
1.440580817730225394e-01
1.440580817730225394e-01
1.440580817730225394e-01
1.452044325563622562e-01
1.452044325563622562e-01
1.482613679786014549e-01
1.482613679786014549e-01
1.482613679786014549e-01
1.463507833397019453e-01
1.463507833397019453e-01
1.604891096675582773e-01
1.604891096675582773e-01
1.604891096675582773e-01
1.478792510508215585e-01
1.478792510508215585e-01
1.528467711119602668e-01
1.528467711119602668e-01
1.528467711119602668e-01
1.410011463507833407e-01
1.410011463507833407e-01
1.581964081008788714e-01
1.581964081008788714e-01
1.581964081008788714e-01
1.352693924340848397e-01
1.352693924340848397e-01
1.539931218952999559e-01
1.539931218952999559e-01
1.539931218952999559e-01
1.459686664119220489e-01
1.459686664119220489e-01
1.283912877340466219e-01
1.283912877340466219e-01
1.283912877340466219e-01
1.276270538784868291e-01
1.276270538784868291e-01
1.494077187619411440e-01
1.494077187619411440e-01
1.494077187619411440e-01
1.474971341230416622e-01
1.474971341230416622e-01
1.482613679786014549e-01
1.482613679786014549e-01
1.482613679786014549e-01
1.280091708062667255e-01
1.280091708062667255e-01
1.394726786396637275e-01
1.394726786396637275e-01
1.394726786396637275e-01
1.432938479174627466e-01
1.432938479174627466e-01
1.452044325563622562e-01
1.452044325563622562e-01
1.452044325563622562e-01
1.318303400840657169e-01
1.318303400840657169e-01
1.310661062285059242e-01
1.310661062285059242e-01
1.310661062285059242e-01
1.280091708062667255e-01
1.280091708062667255e-01
1.425296140619029539e-01
1.425296140619029539e-01
1.425296140619029539e-01
1.280091708062667255e-01
1.280091708062667255e-01
1.157814291173099031e-01
1.157814291173099031e-01
1.157814291173099031e-01
1.325945739396255374e-01
1.325945739396255374e-01
1.253343523118074232e-01
1.253343523118074232e-01
1.253343523118074232e-01
1.291555215896064146e-01
1.291555215896064146e-01
1.390905617118838311e-01
1.390905617118838311e-01
1.390905617118838311e-01
1.318303400840657169e-01
1.318303400840657169e-01
1.341230416507451229e-01
1.341230416507451229e-01
1.341230416507451229e-01
1.226595338173481070e-01
1.226595338173481070e-01
1.150171952617500964e-01
1.150171952617500964e-01
1.150171952617500964e-01
1.345051585785250192e-01
1.345051585785250192e-01
1.169277799006495921e-01
1.169277799006495921e-01
1.169277799006495921e-01
1.348872755063049156e-01
1.348872755063049156e-01
1.234237676729079136e-01
1.234237676729079136e-01
1.234237676729079136e-01
1.287734046618265182e-01
1.287734046618265182e-01
1.375620940007642456e-01
1.375620940007642456e-01
1.375620940007642456e-01
1.310661062285059242e-01
1.310661062285059242e-01
1.249522353840275130e-01
1.249522353840275130e-01
1.249522353840275130e-01
1.276270538784868291e-01
1.276270538784868291e-01
1.268628200229270087e-01
1.268628200229270087e-01
1.268628200229270087e-01
1.303018723729461315e-01
1.303018723729461315e-01
1.180741306839892951e-01
1.180741306839892951e-01
1.180741306839892951e-01
1.360336262896446324e-01
1.360336262896446324e-01
1.303018723729461315e-01
1.303018723729461315e-01
1.303018723729461315e-01
1.310661062285059242e-01
1.310661062285059242e-01
1.280091708062667255e-01
1.280091708062667255e-01
1.280091708062667255e-01
1.142529614061902898e-01
1.142529614061902898e-01
1.218952999617883004e-01
1.218952999617883004e-01
1.218952999617883004e-01
1.222774168895682106e-01
1.222774168895682106e-01
1.188383645395491017e-01
1.188383645395491017e-01
1.188383645395491017e-01
1.215131830340084040e-01
1.215131830340084040e-01
1.352693924340848397e-01
1.352693924340848397e-01
1.352693924340848397e-01
1.215131830340084040e-01
1.215131830340084040e-01
1.176920137562093988e-01
1.176920137562093988e-01
1.176920137562093988e-01
1.215131830340084040e-01
1.215131830340084040e-01
1.371799770729843215e-01
1.371799770729843215e-01
1.371799770729843215e-01
1.452044325563622562e-01
1.452044325563622562e-01
1.410011463507833407e-01
1.410011463507833407e-01
1.410011463507833407e-01
1.360336262896446324e-01
1.360336262896446324e-01
1.364157432174245288e-01
1.364157432174245288e-01
1.364157432174245288e-01
1.264807030951471123e-01
1.264807030951471123e-01
1.345051585785250192e-01
1.345051585785250192e-01
1.345051585785250192e-01
1.536110049675200595e-01
1.536110049675200595e-01
1.417653802063431334e-01
1.417653802063431334e-01
1.417653802063431334e-01
1.406190294230034443e-01
1.406190294230034443e-01
1.658387466564768820e-01
1.658387466564768820e-01
1.658387466564768820e-01
1.608712265953381737e-01
1.608712265953381737e-01
1.654566297286969856e-01
1.654566297286969856e-01
1.818876576232326958e-01
1.818876576232326958e-01
1.818876576232326958e-01
1.845624761176920259e-01
1.845624761176920259e-01
1.765380206343140912e-01
1.765380206343140912e-01
1.765380206343140912e-01
1.876194115399312246e-01
1.876194115399312246e-01
1.887657623232709136e-01
1.887657623232709136e-01
1.887657623232709136e-01
2.078716087122659539e-01
2.078716087122659539e-01
2.013756209400076325e-01
2.013756209400076325e-01
2.013756209400076325e-01
2.078716087122659539e-01
2.078716087122659539e-01
2.101643102789453599e-01
2.101643102789453599e-01
2.101643102789453599e-01
2.288880397401604760e-01
2.288880397401604760e-01
2.239205196790217678e-01
2.239205196790217678e-01
2.239205196790217678e-01
2.338555598012991843e-01
2.338555598012991843e-01
2.342376767290791084e-01
2.342376767290791084e-01
2.342376767290791084e-01
2.357661444401986939e-01
2.357661444401986939e-01
2.445548337791364213e-01
2.445548337791364213e-01
2.445548337791364213e-01
2.372946121513183071e-01
2.372946121513183071e-01
2.460833014902560067e-01
2.460833014902560067e-01
2.460833014902560067e-01
2.506687046236148464e-01
2.506687046236148464e-01
2.506687046236148464e-01
2.506687046236148464e-01
2.506687046236148464e-01
2.667176155903706603e-01
2.667176155903706603e-01
2.533435231180741209e-01
2.533435231180741209e-01
2.533435231180741209e-01
2.525792892625143282e-01
2.525792892625143282e-01
2.571646923958731401e-01
2.571646923958731401e-01
2.571646923958731401e-01
2.766526557126480768e-01
2.766526557126480768e-01
2.617500955292319520e-01
2.617500955292319520e-01
2.617500955292319520e-01
2.728314864348490576e-01
2.728314864348490576e-01
2.655712648070309712e-01
2.655712648070309712e-01
2.655712648070309712e-01
2.777990064959877659e-01
2.777990064959877659e-01
2.850592281238059078e-01
2.850592281238059078e-01
2.850592281238059078e-01
2.674818494459304530e-01
2.674818494459304530e-01
2.850592281238059078e-01
2.850592281238059078e-01
2.850592281238059078e-01
2.797095911348873032e-01
2.797095911348873032e-01
2.869698127627053896e-01
2.869698127627053896e-01
2.869698127627053896e-01
2.789453572793274549e-01
2.789453572793274549e-01
2.709209017959495758e-01
2.709209017959495758e-01
2.709209017959495758e-01
2.800917080626671996e-01
2.800917080626671996e-01
2.888803974016048715e-01
2.888803974016048715e-01
2.888803974016048715e-01
2.751241880015284913e-01
2.751241880015284913e-01
2.777990064959877659e-01
2.777990064959877659e-01
2.777990064959877659e-01
2.728314864348490576e-01
2.728314864348490576e-01
2.724493695070691612e-01
2.724493695070691612e-01
2.724493695070691612e-01
2.869698127627053896e-01
2.869698127627053896e-01
2.770347726404279731e-01
2.770347726404279731e-01
2.770347726404279731e-01
2.972869698127627025e-01
2.972869698127627025e-01
2.781811234237676622e-01
2.781811234237676622e-01
2.781811234237676622e-01
2.884982804738249751e-01
2.884982804738249751e-01
2.988154375238822880e-01
2.988154375238822880e-01
2.988154375238822880e-01
2.934658005349636833e-01
2.934658005349636833e-01
2.827665265571264741e-01
2.827665265571264741e-01
2.827665265571264741e-01
2.835307604126862668e-01
2.835307604126862668e-01
2.862055789071455969e-01
2.862055789071455969e-01
2.862055789071455969e-01
2.762705387848681804e-01
2.762705387848681804e-01
2.831486434849063705e-01
2.831486434849063705e-01
2.831486434849063705e-01
2.911730989682843052e-01
2.911730989682843052e-01
2.961406190294230134e-01
2.961406190294230134e-01
2.961406190294230134e-01
2.816201757737867850e-01
2.816201757737867850e-01
2.823844096293465777e-01
2.823844096293465777e-01
2.823844096293465777e-01
2.789453572793274549e-01
2.789453572793274549e-01
2.877340466182651824e-01
2.877340466182651824e-01
2.877340466182651824e-01
2.911730989682843052e-01
2.911730989682843052e-01
2.670997325181505566e-01
2.670997325181505566e-01
2.670997325181505566e-01
2.800917080626671996e-01
2.800917080626671996e-01
2.682460833014902457e-01
2.682460833014902457e-01
2.682460833014902457e-01
2.854413450515858042e-01
2.854413450515858042e-01
2.777990064959877659e-01
2.777990064959877659e-01
2.777990064959877659e-01
2.793274742071073513e-01
2.793274742071073513e-01
2.732136033626289540e-01
2.732136033626289540e-01
2.732136033626289540e-01
2.858234619793657005e-01
2.858234619793657005e-01
2.835307604126862668e-01
2.835307604126862668e-01
2.835307604126862668e-01
2.720672525792892649e-01
2.720672525792892649e-01
2.747420710737485394e-01
2.747420710737485394e-01
2.747420710737485394e-01
2.728314864348490576e-01
2.728314864348490576e-01
2.835307604126862668e-01
2.835307604126862668e-01
2.835307604126862668e-01
2.674818494459304530e-01
2.674818494459304530e-01
2.705387848681696794e-01
2.705387848681696794e-01
2.705387848681696794e-01
2.625143293847917447e-01
2.625143293847917447e-01
2.625143293847917447e-01
2.625143293847917447e-01
2.625143293847917447e-01
2.628964463125716411e-01
2.628964463125716411e-01
2.636606801681314338e-01
2.636606801681314338e-01
2.636606801681314338e-01
2.506687046236148464e-01
2.506687046236148464e-01
2.602216278181123665e-01
2.602216278181123665e-01
2.602216278181123665e-01
2.479938861291555163e-01
2.479938861291555163e-01
2.426442491402369117e-01
2.426442491402369117e-01
2.571646923958731401e-01
2.571646923958731401e-01
2.571646923958731401e-01
2.483760030569354127e-01
2.483760030569354127e-01
2.395873137179977130e-01
2.395873137179977130e-01
2.395873137179977130e-01
2.445548337791364213e-01
2.445548337791364213e-01
2.476117692013756200e-01
2.476117692013756200e-01
2.476117692013756200e-01
2.483760030569354127e-01
2.483760030569354127e-01
2.388230798624378926e-01
2.388230798624378926e-01
2.388230798624378926e-01
2.414978983568972226e-01
2.414978983568972226e-01
2.376767290790982035e-01
2.376767290790982035e-01
2.376767290790982035e-01
2.265953381734810979e-01
2.265953381734810979e-01
2.353840275124187975e-01
2.353840275124187975e-01
2.353840275124187975e-01
2.342376767290791084e-01
2.342376767290791084e-01
2.411157814291172985e-01
2.411157814291172985e-01
2.411157814291172985e-01
2.269774551012609942e-01
2.269774551012609942e-01
2.235384027512418714e-01
2.235384027512418714e-01
2.235384027512418714e-01
2.204814673290026728e-01
2.204814673290026728e-01
2.250668704623614846e-01
2.250668704623614846e-01
2.250668704623614846e-01
2.113106610622850490e-01
2.113106610622850490e-01
2.288880397401604760e-01
2.288880397401604760e-01
2.288880397401604760e-01
2.128391287734046622e-01
2.128391287734046622e-01
2.101643102789453599e-01
2.101643102789453599e-01
2.101643102789453599e-01
2.109285441345051526e-01
2.109285441345051526e-01
2.147497134123041718e-01
2.147497134123041718e-01
2.147497134123041718e-01
2.258311043179212774e-01
2.258311043179212774e-01
2.166602980512036813e-01
2.166602980512036813e-01
2.166602980512036813e-01
2.101643102789453599e-01
2.101643102789453599e-01
2.120748949178448695e-01
2.120748949178448695e-01
2.120748949178448695e-01
2.277416889568207869e-01
2.277416889568207869e-01
2.204814673290026728e-01
2.204814673290026728e-01
2.204814673290026728e-01
2.071073748567061612e-01
2.071073748567061612e-01
2.243026366068016919e-01
2.243026366068016919e-01
2.243026366068016919e-01
2.105464272067252562e-01
2.105464272067252562e-01
2.063431410011463407e-01
2.063431410011463407e-01
2.063431410011463407e-01
2.158960641956438609e-01
2.158960641956438609e-01
2.128391287734046622e-01
2.128391287734046622e-01
2.128391287734046622e-01
2.055789071455865480e-01
2.055789071455865480e-01
2.128391287734046622e-01
2.128391287734046622e-01
2.128391287734046622e-01
2.044325563622468589e-01
2.044325563622468589e-01
2.189529996178830595e-01
2.189529996178830595e-01
2.189529996178830595e-01
2.116927779900649731e-01
2.116927779900649731e-01
2.220099350401222860e-01
2.220099350401222860e-01
2.220099350401222860e-01
2.174245319067634741e-01
2.174245319067634741e-01
2.143675964845242754e-01
2.143675964845242754e-01
2.143675964845242754e-01
2.162781811234237572e-01
2.162781811234237572e-01
2.067252579289262648e-01
2.067252579289262648e-01
2.067252579289262648e-01
2.082537256400458503e-01
2.082537256400458503e-01
2.151318303400840681e-01
2.151318303400840681e-01
2.151318303400840681e-01
2.074894917844860576e-01
2.074894917844860576e-01
2.212457011845624655e-01
2.212457011845624655e-01
2.212457011845624655e-01
1.994650363011081506e-01
1.994650363011081506e-01
1.983186855177684338e-01
1.983186855177684338e-01
1.983186855177684338e-01
2.136033626289644549e-01
2.136033626289644549e-01
2.040504394344669348e-01
2.040504394344669348e-01
2.040504394344669348e-01
2.021398547955674529e-01
2.021398547955674529e-01
2.116927779900649731e-01
2.116927779900649731e-01
2.116927779900649731e-01
1.933511654566297255e-01
1.933511654566297255e-01
2.136033626289644549e-01
2.136033626289644549e-01
2.136033626289644549e-01
1.941153993121895183e-01
1.941153993121895183e-01
1.975544516622086411e-01
1.975544516622086411e-01
1.975544516622086411e-01
2.071073748567061612e-01
2.071073748567061612e-01
2.040504394344669348e-01
2.040504394344669348e-01
2.040504394344669348e-01
2.044325563622468589e-01
2.044325563622468589e-01
1.887657623232709136e-01
1.887657623232709136e-01
1.887657623232709136e-01
1.914405808177302160e-01
1.914405808177302160e-01
2.013756209400076325e-01
2.013756209400076325e-01
2.013756209400076325e-01
2.124570118456247658e-01
2.124570118456247658e-01
1.994650363011081506e-01
1.994650363011081506e-01
1.994650363011081506e-01
1.918226977455101123e-01
1.918226977455101123e-01
2.021398547955674529e-01
2.021398547955674529e-01
2.021398547955674529e-01
1.899121131066106305e-01
1.899121131066106305e-01
2.009935040122277361e-01
2.009935040122277361e-01
2.009935040122277361e-01
1.872372946121513282e-01
1.872372946121513282e-01
1.876194115399312246e-01
1.876194115399312246e-01
1.876194115399312246e-01
1.906763469621704232e-01
1.906763469621704232e-01
2.006113870844478397e-01
2.006113870844478397e-01
2.006113870844478397e-01
1.906763469621704232e-01
1.906763469621704232e-01
2.051967902178066516e-01
2.051967902178066516e-01
2.051967902178066516e-01
2.044325563622468589e-01
2.044325563622468589e-01
2.017577378677875566e-01
2.017577378677875566e-01
2.017577378677875566e-01
1.922048146732900364e-01
1.922048146732900364e-01
1.780664883454337044e-01
1.780664883454337044e-01
1.837982422621322054e-01
1.837982422621322054e-01
1.837982422621322054e-01
1.933511654566297255e-01
1.933511654566297255e-01
2.009935040122277361e-01
2.009935040122277361e-01
2.009935040122277361e-01
1.841803591899121018e-01
1.841803591899121018e-01
1.818876576232326958e-01
1.818876576232326958e-01
1.818876576232326958e-01
1.960259839510890278e-01
1.960259839510890278e-01
1.803591899121131104e-01
1.803591899121131104e-01
1.803591899121131104e-01
1.849445930454719222e-01
1.849445930454719222e-01
1.975544516622086411e-01
1.975544516622086411e-01
1.975544516622086411e-01
1.918226977455101123e-01
1.918226977455101123e-01
1.822697745510126199e-01
1.822697745510126199e-01
1.822697745510126199e-01
1.941153993121895183e-01
1.941153993121895183e-01
1.803591899121131104e-01
1.803591899121131104e-01
1.803591899121131104e-01
1.841803591899121018e-01
1.841803591899121018e-01
1.933511654566297255e-01
1.933511654566297255e-01
1.933511654566297255e-01
1.750095529231945057e-01
1.750095529231945057e-01
1.849445930454719222e-01
1.849445930454719222e-01
1.849445930454719222e-01
1.765380206343140912e-01
1.765380206343140912e-01
1.906763469621704232e-01
1.906763469621704232e-01
1.906763469621704232e-01
1.803591899121131104e-01
1.803591899121131104e-01
1.761559037065341948e-01
1.761559037065341948e-01
1.761559037065341948e-01
1.910584638899503196e-01
1.910584638899503196e-01
1.708062667176155902e-01
1.708062667176155902e-01
1.708062667176155902e-01
1.891478792510508100e-01
1.891478792510508100e-01
1.704241497898356938e-01
1.704241497898356938e-01
1.704241497898356938e-01
1.742453190676346853e-01
1.742453190676346853e-01
1.719526175009552793e-01
1.719526175009552793e-01
1.719526175009552793e-01
1.750095529231945057e-01
1.750095529231945057e-01
1.849445930454719222e-01
1.849445930454719222e-01
1.849445930454719222e-01
1.685135651509361843e-01
1.685135651509361843e-01
1.654566297286969856e-01
1.654566297286969856e-01
1.654566297286969856e-01
1.773022544898739117e-01
1.773022544898739117e-01
1.738632021398547889e-01
1.738632021398547889e-01
1.738632021398547889e-01
1.845624761176920259e-01
1.845624761176920259e-01
1.715705005731753829e-01
1.715705005731753829e-01
1.715705005731753829e-01
1.837982422621322054e-01
1.837982422621322054e-01
1.627818112342376833e-01
1.627818112342376833e-01
1.627818112342376833e-01
1.826518914787925163e-01
1.826518914787925163e-01
1.685135651509361843e-01
1.685135651509361843e-01
1.685135651509361843e-01
1.704241497898356938e-01
1.704241497898356938e-01
1.639281620175773724e-01
1.639281620175773724e-01
1.639281620175773724e-01
1.883836453954910173e-01
1.883836453954910173e-01
1.795949560565533176e-01
1.795949560565533176e-01
1.795949560565533176e-01
1.696599159342759011e-01
1.696599159342759011e-01
1.700420328620557975e-01
1.700420328620557975e-01
1.700420328620557975e-01
1.688956820787160806e-01
1.688956820787160806e-01
1.666029805120366747e-01
1.666029805120366747e-01
1.666029805120366747e-01
1.666029805120366747e-01
1.666029805120366747e-01
1.803591899121131104e-01
1.803591899121131104e-01
1.803591899121131104e-01
1.685135651509361843e-01
1.685135651509361843e-01
1.792128391287733935e-01
1.792128391287733935e-01
1.792128391287733935e-01
1.769201375620939876e-01
1.769201375620939876e-01
1.750095529231945057e-01
1.750095529231945057e-01
1.750095529231945057e-01
1.654566297286969856e-01
1.654566297286969856e-01
1.589606419564386641e-01
1.589606419564386641e-01
1.589606419564386641e-01
1.826518914787925163e-01
1.826518914787925163e-01
1.830340084065724127e-01
1.830340084065724127e-01
1.830340084065724127e-01
1.757737867787542985e-01
1.757737867787542985e-01
1.685135651509361843e-01
1.685135651509361843e-01
1.685135651509361843e-01
1.711883836453954866e-01
1.711883836453954866e-01
1.631639281620175796e-01
1.631639281620175796e-01
1.631639281620175796e-01
1.620175773786778628e-01
1.620175773786778628e-01
1.562858234619793618e-01
1.562858234619793618e-01
1.562858234619793618e-01
1.730989682842949962e-01
1.730989682842949962e-01
1.681314482231562879e-01
1.681314482231562879e-01
1.681314482231562879e-01
1.666029805120366747e-01
1.666029805120366747e-01
1.769201375620939876e-01
1.769201375620939876e-01
1.769201375620939876e-01
1.639281620175773724e-01
1.639281620175773724e-01
1.803591899121131104e-01
1.803591899121131104e-01
1.803591899121131104e-01
1.723347344287352034e-01
1.723347344287352034e-01
1.792128391287733935e-01
1.792128391287733935e-01
1.792128391287733935e-01
1.857088269010317150e-01
1.857088269010317150e-01
1.639281620175773724e-01
1.639281620175773724e-01
1.639281620175773724e-01
1.868551776843714041e-01
1.868551776843714041e-01
1.673672143675964952e-01
1.673672143675964952e-01
1.673672143675964952e-01
1.650745128009170892e-01
1.650745128009170892e-01
1.792128391287733935e-01
1.792128391287733935e-01
1.792128391287733935e-01
1.822697745510126199e-01
1.822697745510126199e-01
1.708062667176155902e-01
1.708062667176155902e-01
1.708062667176155902e-01
1.650745128009170892e-01
1.650745128009170892e-01
1.639281620175773724e-01
1.639281620175773724e-01
1.639281620175773724e-01
1.643102789453572687e-01
1.643102789453572687e-01
1.792128391287733935e-01
1.792128391287733935e-01
1.742453190676346853e-01
1.742453190676346853e-01
1.742453190676346853e-01
1.826518914787925163e-01
1.826518914787925163e-01
1.803591899121131104e-01
1.803591899121131104e-01
1.803591899121131104e-01
1.776843714176538080e-01
1.776843714176538080e-01
1.708062667176155902e-01
1.708062667176155902e-01
1.708062667176155902e-01
1.620175773786778628e-01
1.620175773786778628e-01
1.700420328620557975e-01
1.700420328620557975e-01
1.700420328620557975e-01
1.620175773786778628e-01
1.620175773786778628e-01
1.711883836453954866e-01
1.711883836453954866e-01
1.711883836453954866e-01
1.708062667176155902e-01
1.708062667176155902e-01
1.795949560565533176e-01
1.795949560565533176e-01
1.795949560565533176e-01
1.700420328620557975e-01
1.700420328620557975e-01
1.792128391287733935e-01
1.792128391287733935e-01
1.792128391287733935e-01
1.692777990064959770e-01
1.692777990064959770e-01
1.704241497898356938e-01
1.704241497898356938e-01
1.704241497898356938e-01
1.860909438288116113e-01
1.860909438288116113e-01
1.715705005731753829e-01
1.715705005731753829e-01
1.715705005731753829e-01
1.761559037065341948e-01
1.761559037065341948e-01
1.853267099732518186e-01
1.853267099732518186e-01
1.853267099732518186e-01
1.627818112342376833e-01
1.627818112342376833e-01
1.795949560565533176e-01
1.795949560565533176e-01
1.795949560565533176e-01
1.822697745510126199e-01
1.822697745510126199e-01
1.669850974398165711e-01
1.669850974398165711e-01
1.669850974398165711e-01
1.868551776843714041e-01
1.868551776843714041e-01
1.788307222009934971e-01
1.788307222009934971e-01
1.788307222009934971e-01
1.803591899121131104e-01
1.803591899121131104e-01
1.826518914787925163e-01
1.826518914787925163e-01
1.826518914787925163e-01
1.795949560565533176e-01
1.795949560565533176e-01
1.876194115399312246e-01
1.876194115399312246e-01
1.876194115399312246e-01
1.662208635842567783e-01
1.662208635842567783e-01
1.853267099732518186e-01
1.853267099732518186e-01
1.853267099732518186e-01
1.654566297286969856e-01
1.654566297286969856e-01
1.880015284677111209e-01
1.880015284677111209e-01
1.880015284677111209e-01
1.654566297286969856e-01
1.654566297286969856e-01
1.750095529231945057e-01
1.750095529231945057e-01
1.750095529231945057e-01
1.845624761176920259e-01
1.845624761176920259e-01
1.818876576232326958e-01
1.818876576232326958e-01
1.818876576232326958e-01
1.620175773786778628e-01
1.620175773786778628e-01
1.765380206343140912e-01
1.765380206343140912e-01
1.765380206343140912e-01
1.688956820787160806e-01
1.688956820787160806e-01
1.841803591899121018e-01
1.841803591899121018e-01
1.841803591899121018e-01
1.860909438288116113e-01
1.860909438288116113e-01
1.654566297286969856e-01
1.654566297286969856e-01
1.654566297286969856e-01
1.685135651509361843e-01
1.685135651509361843e-01
1.700420328620557975e-01
1.700420328620557975e-01
1.700420328620557975e-01
1.688956820787160806e-01
1.688956820787160806e-01
1.887657623232709136e-01
1.887657623232709136e-01
1.887657623232709136e-01
1.715705005731753829e-01
1.715705005731753829e-01
1.883836453954910173e-01
1.883836453954910173e-01
1.883836453954910173e-01
1.837982422621322054e-01
1.837982422621322054e-01
1.723347344287352034e-01
1.723347344287352034e-01
1.723347344287352034e-01
1.933511654566297255e-01
1.933511654566297255e-01
1.765380206343140912e-01
1.765380206343140912e-01
1.765380206343140912e-01
1.780664883454337044e-01
1.780664883454337044e-01
1.979365685899885374e-01
1.979365685899885374e-01
1.979365685899885374e-01
1.998471532288880470e-01
1.998471532288880470e-01
2.067252579289262648e-01
2.067252579289262648e-01
2.067252579289262648e-01
1.910584638899503196e-01
1.910584638899503196e-01
2.128391287734046622e-01
2.128391287734046622e-01
2.128391287734046622e-01
2.158960641956438609e-01
2.158960641956438609e-01
2.101643102789453599e-01
2.101643102789453599e-01
2.101643102789453599e-01
2.094000764233855671e-01
2.094000764233855671e-01
2.136033626289644549e-01
2.136033626289644549e-01
2.136033626289644549e-01
2.178066488345433704e-01
2.178066488345433704e-01
2.411157814291172985e-01
2.411157814291172985e-01
2.411157814291172985e-01
2.441727168513565249e-01
2.441727168513565249e-01
2.338555598012991843e-01
2.338555598012991843e-01
2.338555598012991843e-01
2.499044707680550259e-01
2.499044707680550259e-01
2.571646923958731401e-01
2.571646923958731401e-01
2.571646923958731401e-01
2.525792892625143282e-01
2.525792892625143282e-01
2.499044707680550259e-01
2.499044707680550259e-01
2.499044707680550259e-01
2.632785632403515375e-01
2.632785632403515375e-01
2.724493695070691612e-01
2.724493695070691612e-01
2.724493695070691612e-01
2.758884218570882840e-01
2.758884218570882840e-01
2.846771111960260114e-01
2.846771111960260114e-01
2.846771111960260114e-01
2.957585021016431170e-01
2.957585021016431170e-01
2.873519296904852860e-01
2.873519296904852860e-01
2.873519296904852860e-01
2.938479174627435797e-01
2.938479174627435797e-01
2.881161635460450787e-01
2.881161635460450787e-01
2.881161635460450787e-01
3.045471914405808445e-01
3.045471914405808445e-01
3.007260221627818253e-01
3.007260221627818253e-01
3.018723729461215144e-01
3.018723729461215144e-01
3.018723729461215144e-01
3.056935422239205336e-01
3.056935422239205336e-01
3.225066870462361401e-01
3.225066870462361401e-01
3.225066870462361401e-01
3.144822315628582610e-01
3.144822315628582610e-01
3.129537638517386200e-01
3.129537638517386200e-01
3.129537638517386200e-01
3.274742071073748484e-01
3.274742071073748484e-01
3.339701948796331421e-01
3.339701948796331421e-01
3.339701948796331421e-01
3.389377149407718504e-01
3.389377149407718504e-01
3.381734810852120576e-01
3.381734810852120576e-01
3.381734810852120576e-01
3.282384409629346411e-01
3.282384409629346411e-01
3.393198318685518022e-01
3.393198318685518022e-01
3.393198318685518022e-01
3.324417271685135566e-01
3.324417271685135566e-01
3.381734810852120576e-01
3.381734810852120576e-01
3.381734810852120576e-01
3.354986625907527831e-01
3.354986625907527831e-01
3.335880779518532457e-01
3.335880779518532457e-01
3.335880779518532457e-01
3.477264042797095778e-01
3.477264042797095778e-01
3.473442873519296814e-01
3.473442873519296814e-01
3.473442873519296814e-01
3.603362628964463243e-01
3.603362628964463243e-01
3.526939243408482860e-01
3.526939243408482860e-01
3.526939243408482860e-01
3.450515857852503032e-01
3.450515857852503032e-01
3.454337027130301996e-01
3.454337027130301996e-01
3.454337027130301996e-01
3.469621704241497850e-01
3.469621704241497850e-01
3.469621704241497850e-01
3.469621704241497850e-01
3.469621704241497850e-01
3.496369889186091151e-01
3.496369889186091151e-01
3.668322506687046181e-01
3.668322506687046181e-01
3.668322506687046181e-01
3.633931983186854953e-01
3.633931983186854953e-01
3.702713030187237409e-01
3.702713030187237409e-01
3.702713030187237409e-01
3.473442873519296814e-01
3.473442873519296814e-01
3.618647306075659098e-01
3.618647306075659098e-01
3.618647306075659098e-01
3.603362628964463243e-01
3.603362628964463243e-01
3.588077951853266834e-01
3.588077951853266834e-01
3.588077951853266834e-01
3.542223920519679270e-01
3.542223920519679270e-01
3.637753152464653916e-01
3.637753152464653916e-01
3.637753152464653916e-01
3.614826136797860134e-01
3.614826136797860134e-01
3.729461215131830154e-01
3.729461215131830154e-01
3.729461215131830154e-01
3.653037829575850326e-01
3.653037829575850326e-01
3.687428353076040999e-01
3.687428353076040999e-01
3.687428353076040999e-01
3.664501337409247217e-01
3.664501337409247217e-01
3.614826136797860134e-01
3.614826136797860134e-01
3.614826136797860134e-01
3.779136415743217237e-01
3.779136415743217237e-01
3.683607183798242035e-01
3.683607183798242035e-01
3.683607183798242035e-01
3.740924722965227600e-01
3.740924722965227600e-01
3.691249522353840518e-01
3.691249522353840518e-01
3.691249522353840518e-01
3.591899121131066352e-01
3.591899121131066352e-01
3.591899121131066352e-01
3.591899121131066352e-01
3.591899121131066352e-01
3.782957585021016200e-01
3.782957585021016200e-01
3.618647306075659098e-01
3.618647306075659098e-01
3.618647306075659098e-01
3.614826136797860134e-01
3.614826136797860134e-01
3.584256782575467870e-01
3.584256782575467870e-01
3.584256782575467870e-01
3.611004967520061171e-01
3.611004967520061171e-01
3.775315246465418273e-01
3.775315246465418273e-01
3.775315246465418273e-01
3.740924722965227600e-01
3.740924722965227600e-01
3.626289644631257025e-01
3.626289644631257025e-01
3.626289644631257025e-01
3.779136415743217237e-01
3.779136415743217237e-01
3.584256782575467870e-01
3.584256782575467870e-01
3.584256782575467870e-01
3.584256782575467870e-01
3.584256782575467870e-01
3.737103553687428081e-01
3.737103553687428081e-01
3.737103553687428081e-01
3.717997707298433263e-01
3.717997707298433263e-01
3.607183798242262207e-01
3.607183798242262207e-01
3.607183798242262207e-01
3.584256782575467870e-01
3.584256782575467870e-01
3.641574321742453435e-01
3.641574321742453435e-01
3.641574321742453435e-01
3.691249522353840518e-01
3.691249522353840518e-01
3.599541459686664280e-01
3.599541459686664280e-01
3.599541459686664280e-01
3.633931983186854953e-01
3.633931983186854953e-01
3.530760412686281824e-01
3.530760412686281824e-01
3.530760412686281824e-01
3.423767672907909732e-01
3.423767672907909732e-01
3.534581581964080788e-01
3.534581581964080788e-01
3.534581581964080788e-01
3.484906381352693705e-01
3.484906381352693705e-01
3.400840657241115950e-01
3.400840657241115950e-01
3.400840657241115950e-01
3.519296904852884933e-01
3.519296904852884933e-01
3.530760412686281824e-01
3.530760412686281824e-01
3.530760412686281824e-01
3.458158196408100959e-01
3.458158196408100959e-01
3.324417271685135566e-01
3.324417271685135566e-01
3.324417271685135566e-01
3.454337027130301996e-01
3.454337027130301996e-01
3.312953763851738676e-01
3.312953763851738676e-01
3.312953763851738676e-01
3.312953763851738676e-01
3.312953763851738676e-01
3.381734810852120576e-01
3.381734810852120576e-01
3.381734810852120576e-01
3.335880779518532457e-01
3.335880779518532457e-01
3.312953763851738676e-01
3.312953763851738676e-01
3.312953763851738676e-01
3.343523118074130940e-01
3.343523118074130940e-01
3.343523118074130940e-01
3.343523118074130940e-01
3.263278563240351593e-01
3.263278563240351593e-01
3.263278563240351593e-01
3.297669086740542821e-01
3.297669086740542821e-01
3.137179977072984127e-01
3.137179977072984127e-01
3.137179977072984127e-01
3.030187237294612035e-01
3.030187237294612035e-01
3.198318685517768656e-01
3.198318685517768656e-01
3.198318685517768656e-01
3.079862437905999117e-01
3.079862437905999117e-01
3.095147115017195527e-01
3.095147115017195527e-01
3.095147115017195527e-01
3.144822315628582610e-01
3.144822315628582610e-01
3.125716469239587236e-01
3.125716469239587236e-01
3.125716469239587236e-01
3.183034008406572246e-01
3.183034008406572246e-01
3.114252961406190345e-01
3.114252961406190345e-01
3.114252961406190345e-01
2.980512036683224952e-01
2.980512036683224952e-01
3.026366068016813071e-01
