1.131066106228505869e-01
1.253343523118074232e-01
1.253343523118074232e-01
1.253343523118074232e-01
1.142529614061902898e-01
1.142529614061902898e-01
1.310661062285059242e-01
1.310661062285059242e-01
1.310661062285059242e-01
1.192204814673289981e-01
1.192204814673289981e-01
1.066106228505922793e-01
1.066106228505922793e-01
1.066106228505922793e-01
1.157814291173099031e-01
1.157814291173099031e-01
1.043179212839128733e-01
1.043179212839128733e-01
1.043179212839128733e-01
1.089033244172716852e-01
1.089033244172716852e-01
1.100496752006113882e-01
1.100496752006113882e-01
1.100496752006113882e-01
1.203668322506687011e-01
1.203668322506687011e-01
1.169277799006495921e-01
1.169277799006495921e-01
1.169277799006495921e-01
1.150171952617500964e-01
1.150171952617500964e-01
1.150171952617500964e-01
1.150171952617500964e-01
1.150171952617500964e-01
1.031715705005731704e-01
1.031715705005731704e-01
1.012609858616736747e-01
1.012609858616736747e-01
1.012609858616736747e-01
1.115781429117309875e-01
1.115781429117309875e-01
9.705769965609475913e-02
9.705769965609475913e-02
9.705769965609475913e-02
8.788689338937714923e-02
8.788689338937714923e-02
1.001146350783339717e-01
1.001146350783339717e-01
1.001146350783339717e-01
8.444784103935804032e-02
8.444784103935804032e-02
9.361864730607566409e-02
9.361864730607566409e-02
9.361864730607566409e-02
9.285441345051585749e-02
9.285441345051585749e-02
8.100878868933893140e-02
8.100878868933893140e-02
8.100878868933893140e-02
9.667558272831486277e-02
9.667558272831486277e-02
1.016431027894535710e-01
1.016431027894535710e-01
1.016431027894535710e-01
8.253725640045854461e-02
8.253725640045854461e-02
7.795185326709973272e-02
7.795185326709973272e-02
7.795185326709973272e-02
8.482995796713795056e-02
8.482995796713795056e-02
8.139090561711884164e-02
8.139090561711884164e-02
8.139090561711884164e-02
8.750477646159725287e-02
8.750477646159725287e-02
7.833397019487962909e-02
7.833397019487962909e-02
7.833397019487962909e-02
7.795185326709973272e-02
7.795185326709973272e-02
8.024455483377913867e-02
8.024455483377913867e-02
8.024455483377913867e-02
9.667558272831486277e-02
9.667558272831486277e-02
9.361864730607566409e-02
9.361864730607566409e-02
9.361864730607566409e-02
8.559419182269774329e-02
8.559419182269774329e-02
9.017959495605655518e-02
9.017959495605655518e-02
9.017959495605655518e-02
8.750477646159725287e-02
8.750477646159725287e-02
8.559419182269774329e-02
8.559419182269774329e-02
8.559419182269774329e-02
8.788689338937714923e-02
8.788689338937714923e-02
8.941536110049674857e-02
8.941536110049674857e-02
8.941536110049674857e-02
8.865112724493695584e-02
8.865112724493695584e-02
8.903324417271685220e-02
8.903324417271685220e-02
8.903324417271685220e-02
7.604126862820022315e-02
7.604126862820022315e-02
8.177302254489873801e-02
8.177302254489873801e-02
8.177302254489873801e-02
8.177302254489873801e-02
8.177302254489873801e-02
7.986243790599924230e-02
7.986243790599924230e-02
7.986243790599924230e-02
6.228505922812380829e-02
6.228505922812380829e-02
7.948032097821933206e-02
7.948032097821933206e-02
7.948032097821933206e-02
6.228505922812380829e-02
6.228505922812380829e-02
6.113870844478410532e-02
6.113870844478410532e-02
6.113870844478410532e-02
6.725257928926250961e-02
6.725257928926250961e-02
5.884600687810469938e-02
5.884600687810469938e-02
5.884600687810469938e-02
8.597630875047763965e-02
8.597630875047763965e-02
7.565915170042032678e-02
7.565915170042032678e-02
7.565915170042032678e-02
8.139090561711884164e-02
8.139090561711884164e-02
7.833397019487962909e-02
7.833397019487962909e-02
7.833397019487962909e-02
6.916316392816201919e-02
6.916316392816201919e-02
6.916316392816201919e-02
6.916316392816201919e-02
6.916316392816201919e-02
8.521207489491784692e-02
8.521207489491784692e-02
7.374856706152083108e-02
7.374856706152083108e-02
7.374856706152083108e-02
8.330149025601833734e-02
8.330149025601833734e-02
6.801681314482231622e-02
6.801681314482231622e-02
6.801681314482231622e-02
8.100878868933893140e-02
8.100878868933893140e-02
6.075659151700420202e-02
6.075659151700420202e-02
6.075659151700420202e-02
8.482995796713795056e-02
8.482995796713795056e-02
7.030951471150172216e-02
7.030951471150172216e-02
7.030951471150172216e-02
8.177302254489873801e-02
8.177302254489873801e-02
8.330149025601833734e-02
8.330149025601833734e-02
8.330149025601833734e-02
6.419564386702331094e-02
6.419564386702331094e-02
7.374856706152083108e-02
7.374856706152083108e-02
7.374856706152083108e-02
6.457776079480320730e-02
6.457776079480320730e-02
8.100878868933893140e-02
8.100878868933893140e-02
8.100878868933893140e-02
8.215513947267863437e-02
8.215513947267863437e-02
8.330149025601833734e-02
8.330149025601833734e-02
8.330149025601833734e-02
6.878104700038212282e-02
6.878104700038212282e-02
8.674054260603744626e-02
8.674054260603744626e-02
6.954528085594191555e-02
6.954528085594191555e-02
6.954528085594191555e-02
6.992739778372182580e-02
6.992739778372182580e-02
8.062667176155903503e-02
8.062667176155903503e-02
8.062667176155903503e-02
6.687046236148261324e-02
6.687046236148261324e-02
6.572411157814291027e-02
6.572411157814291027e-02
6.572411157814291027e-02
8.444784103935804032e-02
8.444784103935804032e-02
6.648834543370271688e-02
6.648834543370271688e-02
6.648834543370271688e-02
8.521207489491784692e-02
8.521207489491784692e-02
6.878104700038212282e-02
6.878104700038212282e-02
6.878104700038212282e-02
8.559419182269774329e-02
8.559419182269774329e-02
7.069163163928161853e-02
7.069163163928161853e-02
7.069163163928161853e-02
6.648834543370271688e-02
6.648834543370271688e-02
7.107374856706151489e-02
7.107374856706151489e-02
7.107374856706151489e-02
6.801681314482231622e-02
6.801681314482231622e-02
6.725257928926250961e-02
6.725257928926250961e-02
6.725257928926250961e-02
8.139090561711884164e-02
8.139090561711884164e-02
7.336645013374092084e-02
7.336645013374092084e-02
7.336645013374092084e-02
6.457776079480320730e-02
6.457776079480320730e-02
6.534199465036301391e-02
6.534199465036301391e-02
6.534199465036301391e-02
7.107374856706151489e-02
7.107374856706151489e-02
8.482995796713795056e-02
8.482995796713795056e-02
8.482995796713795056e-02
7.222009935040121786e-02
7.222009935040121786e-02
7.413068398930072744e-02
7.413068398930072744e-02
7.413068398930072744e-02
7.451280091708062381e-02
7.451280091708062381e-02
7.604126862820022315e-02
7.604126862820022315e-02
7.604126862820022315e-02
6.954528085594191555e-02
6.954528085594191555e-02
7.833397019487962909e-02
7.833397019487962909e-02
7.833397019487962909e-02
6.648834543370271688e-02
6.648834543370271688e-02
7.069163163928161853e-02
7.069163163928161853e-02
7.069163163928161853e-02
8.635842567825754990e-02
8.635842567825754990e-02
7.183798242262132150e-02
7.183798242262132150e-02
7.183798242262132150e-02
8.788689338937714923e-02
8.788689338937714923e-02
6.992739778372182580e-02
6.992739778372182580e-02
6.992739778372182580e-02
6.381352693924341457e-02
6.381352693924341457e-02
7.909820405043943570e-02
7.909820405043943570e-02
7.909820405043943570e-02
6.954528085594191555e-02
6.954528085594191555e-02
6.495987772258310367e-02
6.495987772258310367e-02
6.495987772258310367e-02
7.909820405043943570e-02
7.909820405043943570e-02
5.884600687810469938e-02
5.884600687810469938e-02
5.884600687810469938e-02
6.075659151700420202e-02
6.075659151700420202e-02
8.406572411157814395e-02
8.406572411157814395e-02
8.406572411157814395e-02
6.916316392816201919e-02
6.916316392816201919e-02
7.374856706152083108e-02
7.374856706152083108e-02
7.374856706152083108e-02
8.139090561711884164e-02
8.139090561711884164e-02
6.343141001146350433e-02
6.343141001146350433e-02
6.343141001146350433e-02
7.986243790599924230e-02
7.986243790599924230e-02
8.100878868933893140e-02
8.100878868933893140e-02
8.100878868933893140e-02
8.635842567825754990e-02
8.635842567825754990e-02
8.177302254489873801e-02
8.177302254489873801e-02
8.177302254489873801e-02
8.712265953381734263e-02
8.712265953381734263e-02
7.260221627818112811e-02
7.260221627818112811e-02
7.260221627818112811e-02
8.865112724493695584e-02
8.865112724493695584e-02
1.058463889950324865e-01
1.058463889950324865e-01
1.058463889950324865e-01
1.043179212839128733e-01
1.043179212839128733e-01
1.016431027894535710e-01
1.016431027894535710e-01
1.016431027894535710e-01
1.280091708062667255e-01
1.280091708062667255e-01
1.371799770729843215e-01
1.371799770729843215e-01
1.371799770729843215e-01
1.345051585785250192e-01
1.345051585785250192e-01
1.513183034008406536e-01
1.513183034008406536e-01
1.513183034008406536e-01
1.666029805120366747e-01
1.666029805120366747e-01
1.757737867787542985e-01
1.757737867787542985e-01
1.757737867787542985e-01
1.681314482231562879e-01
1.681314482231562879e-01
1.849445930454719222e-01
1.849445930454719222e-01
1.849445930454719222e-01
2.220099350401222860e-01
2.220099350401222860e-01
2.143675964845242754e-01
2.143675964845242754e-01
2.143675964845242754e-01
2.311807413068398820e-01
2.311807413068398820e-01
2.380588460068780998e-01
2.380588460068780998e-01
2.380588460068780998e-01
2.648070309514711229e-01
2.648070309514711229e-01
2.862055789071455969e-01
2.862055789071455969e-01
2.862055789071455969e-01
2.969048528849828061e-01
2.969048528849828061e-01
2.927015666794038906e-01
2.927015666794038906e-01
2.927015666794038906e-01
3.152464654184180537e-01
3.152464654184180537e-01
3.079862437905999117e-01
3.079862437905999117e-01
3.079862437905999117e-01
3.282384409629346411e-01
3.282384409629346411e-01
3.450515857852503032e-01
3.450515857852503032e-01
3.450515857852503032e-01
3.408482995796713877e-01
3.408482995796713877e-01
3.668322506687046181e-01
3.668322506687046181e-01
3.668322506687046181e-01
3.576614444019869943e-01
3.576614444019869943e-01
3.779136415743217237e-01
3.779136415743217237e-01
3.779136415743217237e-01
3.867023309132594511e-01
3.867023309132594511e-01
3.775315246465418273e-01
3.775315246465418273e-01
4.050439434466946986e-01
4.050439434466946986e-01
4.050439434466946986e-01
4.088651127244937178e-01
4.088651127244937178e-01
3.977837218188765567e-01
3.977837218188765567e-01
3.977837218188765567e-01
3.974016048910966603e-01
3.974016048910966603e-01
4.145968666411922188e-01
4.145968666411922188e-01
4.145968666411922188e-01
4.279709591134887026e-01
4.279709591134887026e-01
4.298815437523882399e-01
4.298815437523882399e-01
4.298815437523882399e-01
4.337027130301872591e-01
4.337027130301872591e-01
4.233855559801299462e-01
4.233855559801299462e-01
4.233855559801299462e-01
4.314100114635078254e-01
4.314100114635078254e-01
4.268246083301490135e-01
4.268246083301490135e-01
4.268246083301490135e-01
4.352311807413068445e-01
4.352311807413068445e-01
4.447841039358043647e-01
4.447841039358043647e-01
4.447841039358043647e-01
4.401987008024455528e-01
4.401987008024455528e-01
4.558654948414214703e-01
4.558654948414214703e-01
4.558654948414214703e-01
4.551012609858616775e-01
4.551012609858616775e-01
4.493695070691631765e-01
4.493695070691631765e-01
4.493695070691631765e-01
4.356132976690867409e-01
4.356132976690867409e-01
4.497516239969430729e-01
4.497516239969430729e-01
4.497516239969430729e-01
4.478410393580435356e-01
4.478410393580435356e-01
4.401987008024455528e-01
4.401987008024455528e-01
4.401987008024455528e-01
4.394344669468857600e-01
4.394344669468857600e-01
4.539549102025219884e-01
4.539549102025219884e-01
4.539549102025219884e-01
4.451662208635842610e-01
4.451662208635842610e-01
4.398165838746656564e-01
4.398165838746656564e-01
4.398165838746656564e-01
4.558654948414214703e-01
4.558654948414214703e-01
4.524264424914023475e-01
4.524264424914023475e-01
4.524264424914023475e-01
4.451662208635842610e-01
4.451662208635842610e-01
4.405808177302254491e-01
4.405808177302254491e-01
4.405808177302254491e-01
4.413450515857852419e-01
4.413450515857852419e-01
4.585403133358808003e-01
4.585403133358808003e-01
4.585403133358808003e-01
4.589224302636606967e-01
4.589224302636606967e-01
4.478410393580435356e-01
4.478410393580435356e-01
4.478410393580435356e-01
4.535727932747420921e-01
4.535727932747420921e-01
4.325563622468475145e-01
4.325563622468475145e-01
4.325563622468475145e-01
4.344669468857470518e-01
4.344669468857470518e-01
4.508979747802827620e-01
4.508979747802827620e-01
4.508979747802827620e-01
4.379059992357661191e-01
4.379059992357661191e-01
4.329384791746274108e-01
4.329384791746274108e-01
4.329384791746274108e-01
4.249140236912495316e-01
4.249140236912495316e-01
4.386702330913259673e-01
4.386702330913259673e-01
4.386702330913259673e-01
4.398165838746656564e-01
4.398165838746656564e-01
4.268246083301490135e-01
4.268246083301490135e-01
4.268246083301490135e-01
4.275888421857088062e-01
4.275888421857088062e-01
4.317921283912877217e-01
4.317921283912877217e-01
4.317921283912877217e-01
4.153611004967520115e-01
4.153611004967520115e-01
4.314100114635078254e-01
4.314100114635078254e-01
4.314100114635078254e-01
4.107756973633931996e-01
4.107756973633931996e-01
4.283530760412686544e-01
4.283530760412686544e-01
4.283530760412686544e-01
4.111578142911730960e-01
4.111578142911730960e-01
4.214749713412304089e-01
4.214749713412304089e-01
4.214749713412304089e-01
4.252961406190294280e-01
4.252961406190294280e-01
4.004585403133358867e-01
4.004585403133358867e-01
4.004585403133358867e-01
4.157432174245319079e-01
4.157432174245319079e-01
4.134505158578525297e-01
4.134505158578525297e-01
4.134505158578525297e-01
3.935804356132976967e-01
3.935804356132976967e-01
3.863202139854795547e-01
3.863202139854795547e-01
3.863202139854795547e-01
3.985479556744364049e-01
3.985479556744364049e-01
4.035154757355751132e-01
4.035154757355751132e-01
4.035154757355751132e-01
3.817348108521207428e-01
3.817348108521207428e-01
3.802063431410011574e-01
3.802063431410011574e-01
3.802063431410011574e-01
3.951089033244172821e-01
3.951089033244172821e-01
3.775315246465418273e-01
3.775315246465418273e-01
3.775315246465418273e-01
3.702713030187237409e-01
3.702713030187237409e-01
3.653037829575850326e-01
3.653037829575850326e-01
3.653037829575850326e-01
3.832632785632403283e-01
3.832632785632403283e-01
3.805884600687810537e-01
3.805884600687810537e-01
3.805884600687810537e-01
3.798242262132212610e-01
3.798242262132212610e-01
3.717997707298433263e-01
3.717997707298433263e-01
3.717997707298433263e-01
3.519296904852884933e-01
3.519296904852884933e-01
3.675964845242644108e-01
3.675964845242644108e-01
3.675964845242644108e-01
3.538402751241879751e-01
3.538402751241879751e-01
3.507833397019488042e-01
3.507833397019488042e-01
3.507833397019488042e-01
3.549866259075277197e-01
3.549866259075277197e-01
3.484906381352693705e-01
3.484906381352693705e-01
3.484906381352693705e-01
3.282384409629346411e-01
3.282384409629346411e-01
3.263278563240351593e-01
3.263278563240351593e-01
3.263278563240351593e-01
3.205961024073366583e-01
3.205961024073366583e-01
3.236530378295758292e-01
3.236530378295758292e-01
3.236530378295758292e-01
3.305311425296140748e-01
3.305311425296140748e-01
3.072220099350401190e-01
3.072220099350401190e-01
3.076041268628200154e-01
3.076041268628200154e-01
3.076041268628200154e-01
3.064577760794803263e-01
3.064577760794803263e-01
2.969048528849828061e-01
2.969048528849828061e-01
2.969048528849828061e-01
3.087504776461597045e-01
3.087504776461597045e-01
2.923194497516239942e-01
2.923194497516239942e-01
2.923194497516239942e-01
2.881161635460450787e-01
2.881161635460450787e-01
2.942300343905234761e-01
2.942300343905234761e-01
2.942300343905234761e-01
2.907909820405044088e-01
2.907909820405044088e-01
2.892625143293847678e-01
2.892625143293847678e-01
2.892625143293847678e-01
2.839128773404661632e-01
2.839128773404661632e-01
2.854413450515858042e-01
2.854413450515858042e-01
2.854413450515858042e-01
2.781811234237676622e-01
2.781811234237676622e-01
2.644249140236912266e-01
2.644249140236912266e-01
2.644249140236912266e-01
2.602216278181123665e-01
2.602216278181123665e-01
2.564004585403133474e-01
2.564004585403133474e-01
2.564004585403133474e-01
2.785632403515475586e-01
2.785632403515475586e-01
2.732136033626289540e-01
2.732136033626289540e-01
2.732136033626289540e-01
2.636606801681314338e-01
2.636606801681314338e-01
2.636606801681314338e-01
2.636606801681314338e-01
2.636606801681314338e-01
2.518150554069545355e-01
2.518150554069545355e-01
2.659533817348108675e-01
2.659533817348108675e-01
2.659533817348108675e-01
2.525792892625143282e-01
2.525792892625143282e-01
2.594573939625525183e-01
2.594573939625525183e-01
2.594573939625525183e-01
2.713030187237294721e-01
2.713030187237294721e-01
2.495223538402751295e-01
2.495223538402751295e-01
2.495223538402751295e-01
2.663354986625907639e-01
2.663354986625907639e-01
2.441727168513565249e-01
2.441727168513565249e-01
2.441727168513565249e-01
2.449369507069163177e-01
2.449369507069163177e-01
2.533435231180741209e-01
2.533435231180741209e-01
2.533435231180741209e-01
2.476117692013756200e-01
2.476117692013756200e-01
2.651891478792510748e-01
2.651891478792510748e-01
2.651891478792510748e-01
2.552541077569736583e-01
2.552541077569736583e-01
2.606037447458922629e-01
2.606037447458922629e-01
2.606037447458922629e-01
2.628964463125716411e-01
2.628964463125716411e-01
2.579289262514329328e-01
2.579289262514329328e-01
2.579289262514329328e-01
2.361482613679785902e-01
2.361482613679785902e-01
2.560183416125334510e-01
2.560183416125334510e-01
2.560183416125334510e-01
2.453190676346962140e-01
2.453190676346962140e-01
2.541077569736339137e-01
2.541077569736339137e-01
2.541077569736339137e-01
2.407336645013374021e-01
2.407336645013374021e-01
2.548719908291937064e-01
2.548719908291937064e-01
2.548719908291937064e-01
2.392051967902178167e-01
2.392051967902178167e-01
2.464654184180359309e-01
2.464654184180359309e-01
2.464654184180359309e-01
2.487581199847153091e-01
2.487581199847153091e-01
2.372946121513183071e-01
2.372946121513183071e-01
2.372946121513183071e-01
2.300343905235001929e-01
2.300343905235001929e-01
2.304165074512800893e-01
2.304165074512800893e-01
2.304165074512800893e-01
2.254489873901413810e-01
2.254489873901413810e-01
2.407336645013374021e-01
2.407336645013374021e-01
2.407336645013374021e-01
2.411157814291172985e-01
2.411157814291172985e-01
2.212457011845624655e-01
2.212457011845624655e-01
2.212457011845624655e-01
2.223920519679021823e-01
2.223920519679021823e-01
2.204814673290026728e-01
2.204814673290026728e-01
2.204814673290026728e-01
2.208635842567825691e-01
2.208635842567825691e-01
2.369124952235384107e-01
2.369124952235384107e-01
2.369124952235384107e-01
2.243026366068016919e-01
2.243026366068016919e-01
2.258311043179212774e-01
2.258311043179212774e-01
2.258311043179212774e-01
2.181887657623232668e-01
2.181887657623232668e-01
2.109285441345051526e-01
2.109285441345051526e-01
2.109285441345051526e-01
2.330913259457393916e-01
2.330913259457393916e-01
2.155139472678639645e-01
2.155139472678639645e-01
2.155139472678639645e-01
2.147497134123041718e-01
2.147497134123041718e-01
2.166602980512036813e-01
2.166602980512036813e-01
2.166602980512036813e-01
2.143675964845242754e-01
2.143675964845242754e-01
2.032862055789071420e-01
2.032862055789071420e-01
2.032862055789071420e-01
2.025219717233473493e-01
2.025219717233473493e-01
1.933511654566297255e-01
1.933511654566297255e-01
1.933511654566297255e-01
2.036683225066870384e-01
2.036683225066870384e-01
2.078716087122659539e-01
2.078716087122659539e-01
2.078716087122659539e-01
2.151318303400840681e-01
2.151318303400840681e-01
1.906763469621704232e-01
1.906763469621704232e-01
1.906763469621704232e-01
1.891478792510508100e-01
1.891478792510508100e-01
2.051967902178066516e-01
2.051967902178066516e-01
2.051967902178066516e-01
1.872372946121513282e-01
1.872372946121513282e-01
2.040504394344669348e-01
2.040504394344669348e-01
2.040504394344669348e-01
1.837982422621322054e-01
1.837982422621322054e-01
2.055789071455865480e-01
2.055789071455865480e-01
2.055789071455865480e-01
1.834161253343523090e-01
1.834161253343523090e-01
1.727168513565150998e-01
1.727168513565150998e-01
1.727168513565150998e-01
1.971723347344287447e-01
1.971723347344287447e-01
1.761559037065341948e-01
1.761559037065341948e-01
1.761559037065341948e-01
1.688956820787160806e-01
1.688956820787160806e-01
1.704241497898356938e-01
1.704241497898356938e-01
1.941153993121895183e-01
1.941153993121895183e-01
1.941153993121895183e-01
1.841803591899121018e-01
1.841803591899121018e-01
1.692777990064959770e-01
1.692777990064959770e-01
1.692777990064959770e-01
1.853267099732518186e-01
1.853267099732518186e-01
1.635460450897974760e-01
1.635460450897974760e-01
1.635460450897974760e-01
1.818876576232326958e-01
1.818876576232326958e-01
1.776843714176538080e-01
1.776843714176538080e-01
1.776843714176538080e-01
1.849445930454719222e-01
1.849445930454719222e-01
1.818876576232326958e-01
1.818876576232326958e-01
1.818876576232326958e-01
1.643102789453572687e-01
1.643102789453572687e-01
1.654566297286969856e-01
1.654566297286969856e-01
1.654566297286969856e-01
1.727168513565150998e-01
1.727168513565150998e-01
1.616354604508979664e-01
1.616354604508979664e-01
1.616354604508979664e-01
1.646923958731371929e-01
1.646923958731371929e-01
1.688956820787160806e-01
1.688956820787160806e-01
1.688956820787160806e-01
1.532288880397401631e-01
1.532288880397401631e-01
1.486434849063813513e-01
1.486434849063813513e-01
1.486434849063813513e-01
1.532288880397401631e-01
1.532288880397401631e-01
1.623996943064577869e-01
1.623996943064577869e-01
1.623996943064577869e-01
1.486434849063813513e-01
1.486434849063813513e-01
1.643102789453572687e-01
1.643102789453572687e-01
1.643102789453572687e-01
1.356515093618647361e-01
1.356515093618647361e-01
1.413832632785632371e-01
1.413832632785632371e-01
1.413832632785632371e-01
1.459686664119220489e-01
1.459686664119220489e-01
1.474971341230416622e-01
1.474971341230416622e-01
1.474971341230416622e-01
1.551394726786396727e-01
1.551394726786396727e-01
1.490256018341612476e-01
1.490256018341612476e-01
1.490256018341612476e-01
1.497898356897210681e-01
1.497898356897210681e-01
1.444401987008024357e-01
1.444401987008024357e-01
1.444401987008024357e-01
1.383263278563240384e-01
1.383263278563240384e-01
1.505540695452808608e-01
1.505540695452808608e-01
1.505540695452808608e-01
1.283912877340466219e-01
1.283912877340466219e-01
1.543752388230798522e-01
1.543752388230798522e-01
1.543752388230798522e-01
1.440580817730225394e-01
1.440580817730225394e-01
1.318303400840657169e-01
1.318303400840657169e-01
1.318303400840657169e-01
1.245701184562476166e-01
1.245701184562476166e-01
1.333588077951853301e-01
1.333588077951853301e-01
1.333588077951853301e-01
1.234237676729079136e-01
1.234237676729079136e-01
1.448223156285823598e-01
1.448223156285823598e-01
1.448223156285823598e-01
1.413832632785632371e-01
1.413832632785632371e-01
1.371799770729843215e-01
1.371799770729843215e-01
1.371799770729843215e-01
1.238058846006878100e-01
1.238058846006878100e-01
1.429117309896828503e-01
1.429117309896828503e-01
1.429117309896828503e-01
1.211310661062285077e-01
1.211310661062285077e-01
1.310661062285059242e-01
1.310661062285059242e-01
1.310661062285059242e-01
1.115781429117309875e-01
1.115781429117309875e-01
1.268628200229270087e-01
1.268628200229270087e-01
1.268628200229270087e-01
1.390905617118838311e-01
1.390905617118838311e-01
1.161635460450897994e-01
1.161635460450897994e-01
1.161635460450897994e-01
1.280091708062667255e-01
1.280091708062667255e-01
1.092854413450515816e-01
1.092854413450515816e-01
1.092854413450515816e-01
1.287734046618265182e-01
1.287734046618265182e-01
1.089033244172716852e-01
1.089033244172716852e-01
1.089033244172716852e-01
1.039358043561329770e-01
1.039358043561329770e-01
1.218952999617883004e-01
1.218952999617883004e-01
1.218952999617883004e-01
1.276270538784868291e-01
1.276270538784868291e-01
1.272449369507069050e-01
1.272449369507069050e-01
1.272449369507069050e-01
1.119602598395108839e-01
1.119602598395108839e-01
1.119602598395108839e-01
1.119602598395108839e-01
1.119602598395108839e-01
1.100496752006113882e-01
1.100496752006113882e-01
1.173098968284295024e-01
1.173098968284295024e-01
1.173098968284295024e-01
1.238058846006878100e-01
1.238058846006878100e-01
1.211310661062285077e-01
1.211310661062285077e-01
1.211310661062285077e-01
1.291555215896064146e-01
1.291555215896064146e-01
1.260985861673672159e-01
1.260985861673672159e-01
1.260985861673672159e-01
1.153993121895299928e-01
1.153993121895299928e-01
1.276270538784868291e-01
1.276270538784868291e-01
1.276270538784868291e-01
1.104317921283912846e-01
1.104317921283912846e-01
1.150171952617500964e-01
1.150171952617500964e-01
1.150171952617500964e-01
1.104317921283912846e-01
1.104317921283912846e-01
1.280091708062667255e-01
1.280091708062667255e-01
1.280091708062667255e-01
1.249522353840275130e-01
1.249522353840275130e-01
1.096675582728314918e-01
1.096675582728314918e-01
1.096675582728314918e-01
1.054642720672525763e-01
1.054642720672525763e-01
1.119602598395108839e-01
1.119602598395108839e-01
1.119602598395108839e-01
1.069927397783721756e-01
1.069927397783721756e-01
1.085212074894917889e-01
1.085212074894917889e-01
1.085212074894917889e-01
9.973251815055407532e-02
9.973251815055407532e-02
1.230416507451280034e-01
1.230416507451280034e-01
1.230416507451280034e-01
1.020252197172334674e-01
1.020252197172334674e-01
1.001146350783339717e-01
1.001146350783339717e-01
1.127244936950706905e-01
1.127244936950706905e-01
1.127244936950706905e-01
1.203668322506687011e-01
1.203668322506687011e-01
9.858616736721437235e-02
9.858616736721437235e-02
9.858616736721437235e-02
1.050821551394726799e-01
1.050821551394726799e-01
1.211310661062285077e-01
1.211310661062285077e-01
1.211310661062285077e-01
1.165456629728696958e-01
1.165456629728696958e-01
1.092854413450515816e-01
1.092854413450515816e-01
1.092854413450515816e-01
1.092854413450515816e-01
1.092854413450515816e-01
1.215131830340084040e-01
1.215131830340084040e-01
1.215131830340084040e-01
1.058463889950324865e-01
1.058463889950324865e-01
1.024073366450133776e-01
1.024073366450133776e-01
1.024073366450133776e-01
1.134887275506304971e-01
1.134887275506304971e-01
1.077569736339319822e-01
1.077569736339319822e-01
1.077569736339319822e-01
9.973251815055407532e-02
9.973251815055407532e-02
1.138708444784103935e-01
1.138708444784103935e-01
1.138708444784103935e-01
1.024073366450133776e-01
1.024073366450133776e-01
9.438288116163545682e-02
9.438288116163545682e-02
9.438288116163545682e-02
1.115781429117309875e-01
1.115781429117309875e-01
1.211310661062285077e-01
1.211310661062285077e-01
1.211310661062285077e-01
1.108139090561711948e-01
1.108139090561711948e-01
1.192204814673289981e-01
1.192204814673289981e-01
1.192204814673289981e-01
1.077569736339319822e-01
1.077569736339319822e-01
9.973251815055407532e-02
9.973251815055407532e-02
9.973251815055407532e-02
1.134887275506304971e-01
1.134887275506304971e-01
1.165456629728696958e-01
1.165456629728696958e-01
1.165456629728696958e-01
9.438288116163545682e-02
9.438288116163545682e-02
9.056171188383645154e-02
9.056171188383645154e-02
9.056171188383645154e-02
9.247229652273596112e-02
9.247229652273596112e-02
1.111960259839510912e-01
1.111960259839510912e-01
1.111960259839510912e-01
1.123423767672907941e-01
1.123423767672907941e-01
1.058463889950324865e-01
1.058463889950324865e-01
1.058463889950324865e-01
9.973251815055407532e-02
9.973251815055407532e-02
1.169277799006495921e-01
1.169277799006495921e-01
1.169277799006495921e-01
1.150171952617500964e-01
1.150171952617500964e-01
8.941536110049674857e-02
8.941536110049674857e-02
8.941536110049674857e-02
1.123423767672907941e-01
1.123423767672907941e-01
9.247229652273596112e-02
9.247229652273596112e-02
9.247229652273596112e-02
9.400076423385556046e-02
9.400076423385556046e-02
1.092854413450515816e-01
1.092854413450515816e-01
1.092854413450515816e-01
1.054642720672525763e-01
1.054642720672525763e-01
1.127244936950706905e-01
1.127244936950706905e-01
1.127244936950706905e-01
1.081390905617118786e-01
1.081390905617118786e-01
8.979747802827665881e-02
8.979747802827665881e-02
8.979747802827665881e-02
1.092854413450515816e-01
1.092854413450515816e-01
1.108139090561711948e-01
1.108139090561711948e-01
1.108139090561711948e-01
1.043179212839128733e-01
1.043179212839128733e-01
9.973251815055407532e-02
9.973251815055407532e-02
9.973251815055407532e-02
1.127244936950706905e-01
1.127244936950706905e-01
9.170806266717615451e-02
9.170806266717615451e-02
9.170806266717615451e-02
9.476499808941536707e-02
9.476499808941536707e-02
8.291937332823844098e-02
8.291937332823844098e-02
8.291937332823844098e-02
9.323653037829575385e-02
9.323653037829575385e-02
1.058463889950324865e-01
1.058463889950324865e-01
1.058463889950324865e-01
1.092854413450515816e-01
1.092854413450515816e-01
8.444784103935804032e-02
8.444784103935804032e-02
8.444784103935804032e-02
8.406572411157814395e-02
8.406572411157814395e-02
8.406572411157814395e-02
8.406572411157814395e-02
8.406572411157814395e-02
8.559419182269774329e-02
8.559419182269774329e-02
9.552923194497515980e-02
9.552923194497515980e-02
9.552923194497515980e-02
1.096675582728314918e-01
1.096675582728314918e-01
1.085212074894917889e-01
1.085212074894917889e-01
1.085212074894917889e-01
8.979747802827665881e-02
8.979747802827665881e-02
1.039358043561329770e-01
1.039358043561329770e-01
1.039358043561329770e-01
9.973251815055407532e-02
9.973251815055407532e-02
8.903324417271685220e-02
8.903324417271685220e-02
8.903324417271685220e-02
8.597630875047763965e-02
8.597630875047763965e-02
1.027894535727932740e-01
1.027894535727932740e-01
1.027894535727932740e-01
1.008788689338937783e-01
1.008788689338937783e-01
9.705769965609475913e-02
9.705769965609475913e-02
9.705769965609475913e-02
9.056171188383645154e-02
9.056171188383645154e-02
1.104317921283912846e-01
1.104317921283912846e-01
1.104317921283912846e-01
9.552923194497515980e-02
9.552923194497515980e-02
9.552923194497515980e-02
9.552923194497515980e-02
9.552923194497515980e-02
1.027894535727932740e-01
1.027894535727932740e-01
1.127244936950706905e-01
1.127244936950706905e-01
1.127244936950706905e-01
1.131066106228505869e-01
1.131066106228505869e-01
1.394726786396637275e-01
1.394726786396637275e-01
1.394726786396637275e-01
1.314482231562858205e-01
1.314482231562858205e-01
1.471150171952617380e-01
1.471150171952617380e-01
1.471150171952617380e-01
1.593427588842185605e-01
1.593427588842185605e-01
1.784486052732136008e-01
1.784486052732136008e-01
1.784486052732136008e-01
1.849445930454719222e-01
1.849445930454719222e-01
2.067252579289262648e-01
2.067252579289262648e-01
1.967902178066488483e-01
1.967902178066488483e-01
1.967902178066488483e-01
2.170424149789835777e-01
2.170424149789835777e-01
2.315628582346198061e-01
2.315628582346198061e-01
2.315628582346198061e-01
2.518150554069545355e-01
2.518150554069545355e-01
2.510508215513947428e-01
2.510508215513947428e-01
2.510508215513947428e-01
2.823844096293465777e-01
2.823844096293465777e-01
2.862055789071455969e-01
2.862055789071455969e-01
2.862055789071455969e-01
2.904088651127245124e-01
2.904088651127245124e-01
3.106610622850592418e-01
3.106610622850592418e-01
3.106610622850592418e-01
3.225066870462361401e-01
3.225066870462361401e-01
3.278563240351547448e-01
3.278563240351547448e-01
3.278563240351547448e-01
3.557508597630875125e-01
3.557508597630875125e-01
3.538402751241879751e-01
3.538402751241879751e-01
3.538402751241879751e-01
3.588077951853266834e-01
3.588077951853266834e-01
3.916698509743981593e-01
3.916698509743981593e-01
3.916698509743981593e-01
3.863202139854795547e-01
3.863202139854795547e-01
3.947267863966373858e-01
3.947267863966373858e-01
3.947267863966373858e-01
4.092472296522736142e-01
4.092472296522736142e-01
4.050439434466946986e-01
4.050439434466946986e-01
4.050439434466946986e-01
4.199465036301108234e-01
4.199465036301108234e-01
4.142147497134123224e-01
4.142147497134123224e-01
4.142147497134123224e-01
4.180359189912112861e-01
4.180359189912112861e-01
4.424914023691249310e-01
4.424914023691249310e-01
4.424914023691249310e-01
4.291173098968284472e-01
4.291173098968284472e-01
4.348490638135269482e-01
4.348490638135269482e-01
4.348490638135269482e-01
4.474589224302636392e-01
4.474589224302636392e-01
4.417271685135651382e-01
4.417271685135651382e-01
4.417271685135651382e-01
4.486052732136033838e-01
4.486052732136033838e-01
4.688574703859381132e-01
4.688574703859381132e-01
4.688574703859381132e-01
4.593045471914405931e-01
4.593045471914405931e-01
4.711501719526174914e-01
4.711501719526174914e-01
4.711501719526174914e-01
4.768819258693159924e-01
4.768819258693159924e-01
4.814673290026748043e-01
4.814673290026748043e-01
4.814673290026748043e-01
4.849063813526939271e-01
4.849063813526939271e-01
4.677111196025983686e-01
4.677111196025983686e-01
4.677111196025983686e-01
4.719144058081772841e-01
4.719144058081772841e-01
4.856706152082537198e-01
4.856706152082537198e-01
4.856706152082537198e-01
4.726786396637370768e-01
4.726786396637370768e-01
4.722965227359571805e-01
4.722965227359571805e-01
4.722965227359571805e-01
4.711501719526174914e-01
4.711501719526174914e-01
4.914023691249522208e-01
4.914023691249522208e-01
4.914023691249522208e-01
4.837600305693542380e-01
4.837600305693542380e-01
4.914023691249522208e-01
4.914023691249522208e-01
4.914023691249522208e-01
4.711501719526174914e-01
4.711501719526174914e-01
4.963698891860909290e-01
4.963698891860909290e-01
4.963698891860909290e-01
4.952235384027512399e-01
4.952235384027512399e-01
4.799388612915552188e-01
4.799388612915552188e-01
4.799388612915552188e-01
4.914023691249522208e-01
4.914023691249522208e-01
4.768819258693159924e-01
4.768819258693159924e-01
4.768819258693159924e-01
4.902560183416125317e-01
4.902560183416125317e-01
4.719144058081772841e-01
4.719144058081772841e-01
4.719144058081772841e-01
4.910202521971723244e-01
4.910202521971723244e-01
4.807030951471150115e-01
4.807030951471150115e-01
4.807030951471150115e-01
4.967520061138708254e-01
4.967520061138708254e-01
4.860527321360336162e-01
4.860527321360336162e-01
4.860527321360336162e-01
4.780282766526557370e-01
4.780282766526557370e-01
4.768819258693159924e-01
4.768819258693159924e-01
4.768819258693159924e-01
4.669468857470385759e-01
4.669468857470385759e-01
4.871990829193733052e-01
4.871990829193733052e-01
4.871990829193733052e-01
4.879633167749331535e-01
4.879633167749331535e-01
4.803209782193351152e-01
4.803209782193351152e-01
4.803209782193351152e-01
4.619793656858998676e-01
4.619793656858998676e-01
4.646541841803591977e-01
4.646541841803591977e-01
4.646541841803591977e-01
4.768819258693159924e-01
4.768819258693159924e-01
4.677111196025983686e-01
4.677111196025983686e-01
4.677111196025983686e-01
4.508979747802827620e-01
4.508979747802827620e-01
4.696217042414979059e-01
4.696217042414979059e-01
4.696217042414979059e-01
4.520443255636224511e-01
4.520443255636224511e-01
4.654184180359189904e-01
4.654184180359189904e-01
4.654184180359189904e-01
4.646541841803591977e-01
4.646541841803591977e-01
4.627435995414596603e-01
4.627435995414596603e-01
4.627435995414596603e-01
4.543370271303018848e-01
4.543370271303018848e-01
4.654184180359189904e-01
4.654184180359189904e-01
4.654184180359189904e-01
4.348490638135269482e-01
4.348490638135269482e-01
4.386702330913259673e-01
4.386702330913259673e-01
4.386702330913259673e-01
4.497516239969430729e-01
4.497516239969430729e-01
4.337027130301872591e-01
4.337027130301872591e-01
4.337027130301872591e-01
4.382881161635460709e-01
4.382881161635460709e-01
4.279709591134887026e-01
4.279709591134887026e-01
4.279709591134887026e-01
4.421092854413450346e-01
4.421092854413450346e-01
4.386702330913259673e-01
4.386702330913259673e-01
4.210928544134505125e-01
4.210928544134505125e-01
4.210928544134505125e-01
4.184180359189912379e-01
4.184180359189912379e-01
4.314100114635078254e-01
4.314100114635078254e-01
4.314100114635078254e-01
4.268246083301490135e-01
4.268246083301490135e-01
4.329384791746274108e-01
4.329384791746274108e-01
4.329384791746274108e-01
4.176538020634313897e-01
4.176538020634313897e-01
4.035154757355751132e-01
4.035154757355751132e-01
4.035154757355751132e-01
4.180359189912112861e-01
4.180359189912112861e-01
4.153611004967520115e-01
4.153611004967520115e-01
4.153611004967520115e-01
4.092472296522736142e-01
4.092472296522736142e-01
4.031333588077951613e-01
4.031333588077951613e-01
4.031333588077951613e-01
3.947267863966373858e-01
3.947267863966373858e-01
3.744745892243026564e-01
3.744745892243026564e-01
3.744745892243026564e-01
3.886129155521589329e-01
3.886129155521589329e-01
3.748567061520825527e-01
3.748567061520825527e-01
3.748567061520825527e-01
3.782957585021016200e-01
3.782957585021016200e-01
3.809705769965609501e-01
3.809705769965609501e-01
3.809705769965609501e-01
3.576614444019869943e-01
3.576614444019869943e-01
3.710355368742835336e-01
3.710355368742835336e-01
3.710355368742835336e-01
3.549866259075277197e-01
3.549866259075277197e-01
3.591899121131066352e-01
3.591899121131066352e-01
3.591899121131066352e-01
3.580435613297668906e-01
3.580435613297668906e-01
3.301490256018341785e-01
3.301490256018341785e-01
3.301490256018341785e-01
3.477264042797095778e-01
3.477264042797095778e-01
3.324417271685135566e-01
3.324417271685135566e-01
3.324417271685135566e-01
3.205961024073366583e-01
3.205961024073366583e-01
3.137179977072984127e-01
3.137179977072984127e-01
3.137179977072984127e-01
3.247993886129155738e-01
3.247993886129155738e-01
3.110431792128391382e-01
3.110431792128391382e-01
3.110431792128391382e-01
3.018723729461215144e-01
3.018723729461215144e-01
3.121895299961788273e-01
3.121895299961788273e-01
3.121895299961788273e-01
3.118074130683989309e-01
3.118074130683989309e-01
3.118074130683989309e-01
3.118074130683989309e-01
3.118074130683989309e-01
3.083683607183798081e-01
3.083683607183798081e-01
2.869698127627053896e-01
2.869698127627053896e-01
2.869698127627053896e-01
3.076041268628200154e-01
3.076041268628200154e-01
2.927015666794038906e-01
2.927015666794038906e-01
2.927015666794038906e-01
3.007260221627818253e-01
3.007260221627818253e-01
2.969048528849828061e-01
2.969048528849828061e-01
2.969048528849828061e-01
2.739778372181887467e-01
2.739778372181887467e-01
2.720672525792892649e-01
2.720672525792892649e-01
2.720672525792892649e-01
2.728314864348490576e-01
2.728314864348490576e-01
2.820022927015666814e-01
2.820022927015666814e-01
2.820022927015666814e-01
2.789453572793274549e-01
2.789453572793274549e-01
2.735957202904088503e-01
2.735957202904088503e-01
2.735957202904088503e-01
2.579289262514329328e-01
2.579289262514329328e-01
2.598395108903324147e-01
2.598395108903324147e-01
2.598395108903324147e-01
2.594573939625525183e-01
2.594573939625525183e-01
2.583110431792128292e-01
2.583110431792128292e-01
2.583110431792128292e-01
2.544898739014138100e-01
2.544898739014138100e-01
2.770347726404279731e-01
2.770347726404279731e-01
2.770347726404279731e-01
2.747420710737485394e-01
2.747420710737485394e-01
2.529614061902942246e-01
2.529614061902942246e-01
2.529614061902942246e-01
2.716851356515093685e-01
2.716851356515093685e-01
2.674818494459304530e-01
2.674818494459304530e-01
2.674818494459304530e-01
2.491402369124952332e-01
2.491402369124952332e-01
2.460833014902560067e-01
2.460833014902560067e-01
2.460833014902560067e-01
2.453190676346962140e-01
2.453190676346962140e-01
2.640427970959113302e-01
2.640427970959113302e-01
2.640427970959113302e-01
2.521971723347344319e-01
2.521971723347344319e-01
2.651891478792510748e-01
2.651891478792510748e-01
2.651891478792510748e-01
2.636606801681314338e-01
2.636606801681314338e-01
2.453190676346962140e-01
2.453190676346962140e-01
2.453190676346962140e-01
2.510508215513947428e-01
2.510508215513947428e-01
2.552541077569736583e-01
2.552541077569736583e-01
2.552541077569736583e-01
2.372946121513183071e-01
2.372946121513183071e-01
2.418800152846771190e-01
2.418800152846771190e-01
2.418800152846771190e-01
2.449369507069163177e-01
2.449369507069163177e-01
2.296522735957202965e-01
2.296522735957202965e-01
2.296522735957202965e-01
2.510508215513947428e-01
2.510508215513947428e-01
2.453190676346962140e-01
2.453190676346962140e-01
2.453190676346962140e-01
2.231562858234619751e-01
2.231562858234619751e-01
2.296522735957202965e-01
2.296522735957202965e-01
2.296522735957202965e-01
2.262132212457011737e-01
2.262132212457011737e-01
2.407336645013374021e-01
2.407336645013374021e-01
2.407336645013374021e-01
2.262132212457011737e-01
2.262132212457011737e-01
2.189529996178830595e-01
2.189529996178830595e-01
2.189529996178830595e-01
2.120748949178448695e-01
2.120748949178448695e-01
2.147497134123041718e-01
2.147497134123041718e-01
2.147497134123041718e-01
2.185708826901031632e-01
2.185708826901031632e-01
2.311807413068398820e-01
2.311807413068398820e-01
2.204814673290026728e-01
2.204814673290026728e-01
2.204814673290026728e-01
2.269774551012609942e-01
2.269774551012609942e-01
2.036683225066870384e-01
2.036683225066870384e-01
2.036683225066870384e-01
1.979365685899885374e-01
1.979365685899885374e-01
2.090179594956056430e-01
2.090179594956056430e-01
2.090179594956056430e-01
2.197172334734428800e-01
2.197172334734428800e-01
2.120748949178448695e-01
2.120748949178448695e-01
2.120748949178448695e-01
2.017577378677875566e-01
2.017577378677875566e-01
2.086358425678257467e-01
2.086358425678257467e-01
2.086358425678257467e-01
1.891478792510508100e-01
1.891478792510508100e-01
1.922048146732900364e-01
1.922048146732900364e-01
1.922048146732900364e-01
2.094000764233855671e-01
2.094000764233855671e-01
1.983186855177684338e-01
1.983186855177684338e-01
1.983186855177684338e-01
1.952617500955292351e-01
1.952617500955292351e-01
1.987008024455483302e-01
1.987008024455483302e-01
1.987008024455483302e-01
1.784486052732136008e-01
1.784486052732136008e-01
1.933511654566297255e-01
1.933511654566297255e-01
1.933511654566297255e-01
1.811234237676729031e-01
1.811234237676729031e-01
1.811234237676729031e-01
1.811234237676729031e-01
1.811234237676729031e-01
1.685135651509361843e-01
1.685135651509361843e-01
1.895299961788307341e-01
1.895299961788307341e-01
1.895299961788307341e-01
1.776843714176538080e-01
1.776843714176538080e-01
1.738632021398547889e-01
1.738632021398547889e-01
1.738632021398547889e-01
1.799770729843332140e-01
1.799770729843332140e-01
1.765380206343140912e-01
1.765380206343140912e-01
1.765380206343140912e-01
1.788307222009934971e-01
1.788307222009934971e-01
1.646923958731371929e-01
1.646923958731371929e-01
1.646923958731371929e-01
1.532288880397401631e-01
1.532288880397401631e-01
1.467329002674818417e-01
1.467329002674818417e-01
1.467329002674818417e-01
1.639281620175773724e-01
1.639281620175773724e-01
1.669850974398165711e-01
1.669850974398165711e-01
1.669850974398165711e-01
1.471150171952617380e-01
1.471150171952617380e-01
1.547573557508597764e-01
1.547573557508597764e-01
1.547573557508597764e-01
1.490256018341612476e-01
1.490256018341612476e-01
1.375620940007642456e-01
1.375620940007642456e-01
1.375620940007642456e-01
1.478792510508215585e-01
1.478792510508215585e-01
1.524646541841803704e-01
1.524646541841803704e-01
1.524646541841803704e-01
1.494077187619411440e-01
1.494077187619411440e-01
1.379442109285441420e-01
1.379442109285441420e-01
1.379442109285441420e-01
1.306839893007260278e-01
1.306839893007260278e-01
1.501719526175009645e-01
1.501719526175009645e-01
1.501719526175009645e-01
1.394726786396637275e-01
1.394726786396637275e-01
1.238058846006878100e-01
1.238058846006878100e-01
1.238058846006878100e-01
1.207489491784486113e-01
1.207489491784486113e-01
1.272449369507069050e-01
1.272449369507069050e-01
1.272449369507069050e-01
1.367978601452044252e-01
1.367978601452044252e-01
1.333588077951853301e-01
1.333588077951853301e-01
1.333588077951853301e-01
1.184562476117692054e-01
1.184562476117692054e-01
1.260985861673672159e-01
1.260985861673672159e-01
1.260985861673672159e-01
1.196025983951089083e-01
1.196025983951089083e-01
1.352693924340848397e-01
1.352693924340848397e-01
1.352693924340848397e-01
1.348872755063049156e-01
1.348872755063049156e-01
1.062285059228123829e-01
1.062285059228123829e-01
1.062285059228123829e-01
1.257164692395873196e-01
1.257164692395873196e-01
1.146350783339702001e-01
1.146350783339702001e-01
1.146350783339702001e-01
1.027894535727932740e-01
1.027894535727932740e-01
1.142529614061902898e-01
1.142529614061902898e-01
1.142529614061902898e-01
1.066106228505922793e-01
1.066106228505922793e-01
1.123423767672907941e-01
1.123423767672907941e-01
1.123423767672907941e-01
1.027894535727932740e-01
1.027894535727932740e-01
9.705769965609475913e-02
9.705769965609475913e-02
9.705769965609475913e-02
1.215131830340084040e-01
1.215131830340084040e-01
1.173098968284295024e-01
1.173098968284295024e-01
1.173098968284295024e-01
1.127244936950706905e-01
1.127244936950706905e-01
1.115781429117309875e-01
1.115781429117309875e-01
1.115781429117309875e-01
1.050821551394726799e-01
1.050821551394726799e-01
9.705769965609475913e-02
9.705769965609475913e-02
9.705769965609475913e-02
1.085212074894917889e-01
1.085212074894917889e-01
1.001146350783339717e-01
1.001146350783339717e-01
1.001146350783339717e-01
1.069927397783721756e-01
1.069927397783721756e-01
9.323653037829575385e-02
9.323653037829575385e-02
9.323653037829575385e-02
1.062285059228123829e-01
1.062285059228123829e-01
8.597630875047763965e-02
8.597630875047763965e-02
8.597630875047763965e-02
1.062285059228123829e-01
1.062285059228123829e-01
8.750477646159725287e-02
8.750477646159725287e-02
8.750477646159725287e-02
7.986243790599924230e-02
7.986243790599924230e-02
7.795185326709973272e-02
7.795185326709973272e-02
7.795185326709973272e-02
8.139090561711884164e-02
8.139090561711884164e-02
8.865112724493695584e-02
8.865112724493695584e-02
8.865112724493695584e-02
1.008788689338937783e-01
1.008788689338937783e-01
8.368360718379824759e-02
8.368360718379824759e-02
8.368360718379824759e-02
8.253725640045854461e-02
8.253725640045854461e-02
9.170806266717615451e-02
9.170806266717615451e-02
9.400076423385556046e-02
9.400076423385556046e-02
9.400076423385556046e-02
9.667558272831486277e-02
9.667558272831486277e-02
8.750477646159725287e-02
8.750477646159725287e-02
8.750477646159725287e-02
7.871608712265953933e-02
7.871608712265953933e-02
7.986243790599924230e-02
7.986243790599924230e-02
7.986243790599924230e-02
8.139090561711884164e-02
8.139090561711884164e-02
7.374856706152083108e-02
7.374856706152083108e-02
7.374856706152083108e-02
7.718761941153992612e-02
7.718761941153992612e-02
8.062667176155903503e-02
8.062667176155903503e-02
8.062667176155903503e-02
8.100878868933893140e-02
8.100878868933893140e-02
7.107374856706151489e-02
7.107374856706151489e-02
7.107374856706151489e-02
8.406572411157814395e-02
8.406572411157814395e-02
7.489491784486053405e-02
7.489491784486053405e-02
7.489491784486053405e-02
7.183798242262132150e-02
7.183798242262132150e-02
7.222009935040121786e-02
7.222009935040121786e-02
7.222009935040121786e-02
9.323653037829575385e-02
9.323653037829575385e-02
6.763469621704241985e-02
6.763469621704241985e-02
6.763469621704241985e-02
7.260221627818112811e-02
7.260221627818112811e-02
8.559419182269774329e-02
8.559419182269774329e-02
8.559419182269774329e-02
7.680550248376002975e-02
7.680550248376002975e-02
8.215513947267863437e-02
8.215513947267863437e-02
8.215513947267863437e-02
7.030951471150172216e-02
7.030951471150172216e-02
6.228505922812380829e-02
6.228505922812380829e-02
6.228505922812380829e-02
6.457776079480320730e-02
6.457776079480320730e-02
6.152082537256400169e-02
6.152082537256400169e-02
6.152082537256400169e-02
8.139090561711884164e-02
8.139090561711884164e-02
7.948032097821933206e-02
7.948032097821933206e-02
7.948032097821933206e-02
5.655330531142529343e-02
5.655330531142529343e-02
6.419564386702331094e-02
6.419564386702331094e-02
6.419564386702331094e-02
8.253725640045854461e-02
8.253725640045854461e-02
8.177302254489873801e-02
8.177302254489873801e-02
8.177302254489873801e-02
6.457776079480320730e-02
6.457776079480320730e-02
6.190294230034390499e-02
6.190294230034390499e-02
6.190294230034390499e-02
7.795185326709973272e-02
7.795185326709973272e-02
6.534199465036301391e-02
6.534199465036301391e-02
6.534199465036301391e-02
7.604126862820022315e-02
7.604126862820022315e-02
7.948032097821933206e-02
7.948032097821933206e-02
7.948032097821933206e-02
5.349636988918608782e-02
5.349636988918608782e-02
8.062667176155903503e-02
8.062667176155903503e-02
8.062667176155903503e-02
5.999235766144440235e-02
5.999235766144440235e-02
7.183798242262132150e-02
7.183798242262132150e-02
7.183798242262132150e-02
8.253725640045854461e-02
8.253725640045854461e-02
5.693542223920519674e-02
5.693542223920519674e-02
5.693542223920519674e-02
5.502483760030569410e-02
5.502483760030569410e-02
7.680550248376002975e-02
7.680550248376002975e-02
7.680550248376002975e-02
6.878104700038212282e-02
6.878104700038212282e-02
7.222009935040121786e-02
7.222009935040121786e-02
7.222009935040121786e-02
6.381352693924341457e-02
6.381352693924341457e-02
5.158578525028658518e-02
5.158578525028658518e-02
5.158578525028658518e-02
7.183798242262132150e-02
7.183798242262132150e-02
7.260221627818112811e-02
7.260221627818112811e-02
7.260221627818112811e-02
5.884600687810469938e-02
5.884600687810469938e-02
5.196790217806648848e-02
5.196790217806648848e-02
5.196790217806648848e-02
6.381352693924341457e-02
6.381352693924341457e-02
5.769965609476499641e-02
5.769965609476499641e-02
5.769965609476499641e-02
6.839893007260221258e-02
6.839893007260221258e-02
4.814673290026748320e-02
4.814673290026748320e-02
4.814673290026748320e-02
6.763469621704241985e-02
6.763469621704241985e-02
7.069163163928161853e-02
7.069163163928161853e-02
7.069163163928161853e-02
6.763469621704241985e-02
6.763469621704241985e-02
5.999235766144440235e-02
5.999235766144440235e-02
5.999235766144440235e-02
5.769965609476499641e-02
5.769965609476499641e-02
4.470768055024837428e-02
4.470768055024837428e-02
4.470768055024837428e-02
5.311425296140619146e-02
5.311425296140619146e-02
6.228505922812380829e-02
6.228505922812380829e-02
6.228505922812380829e-02
5.922812380588460268e-02
5.922812380588460268e-02
6.419564386702331094e-02
6.419564386702331094e-02
6.419564386702331094e-02
5.502483760030569410e-02
5.502483760030569410e-02
4.891096675582728287e-02
4.891096675582728287e-02
4.891096675582728287e-02
5.005731753916698584e-02
5.005731753916698584e-02
6.304929308368360796e-02
6.304929308368360796e-02
6.304929308368360796e-02
4.432556362246847792e-02
4.432556362246847792e-02
5.235001910584639179e-02
5.235001910584639179e-02
5.235001910584639179e-02
4.088651127244936900e-02
4.088651127244936900e-02
6.037447458922430565e-02
6.037447458922430565e-02
6.037447458922430565e-02
5.387848681696599112e-02
5.387848681696599112e-02
5.846388995032479607e-02
5.846388995032479607e-02
5.846388995032479607e-02
3.706534199465036372e-02
3.706534199465036372e-02
4.050439434466946570e-02
4.050439434466946570e-02
4.050439434466946570e-02
3.439052350019106141e-02
3.439052350019106141e-02
3.859380970576996306e-02
3.859380970576996306e-02
4.661826518914787693e-02
4.661826518914787693e-02
4.661826518914787693e-02
4.356132976690867131e-02
4.356132976690867131e-02
3.553687428353075745e-02
3.553687428353075745e-02
3.553687428353075745e-02
3.439052350019106141e-02
3.439052350019106141e-02
3.935804356132976967e-02
3.935804356132976967e-02
3.935804356132976967e-02
4.585403133358807726e-02
4.585403133358807726e-02
6.037447458922430565e-02
6.037447458922430565e-02
6.037447458922430565e-02
4.432556362246847792e-02
4.432556362246847792e-02
5.655330531142529343e-02
5.655330531142529343e-02
5.655330531142529343e-02
5.693542223920519674e-02
5.693542223920519674e-02
5.120366832250668881e-02
5.120366832250668881e-02
5.120366832250668881e-02
5.999235766144440235e-02
5.999235766144440235e-02
5.884600687810469938e-02
5.884600687810469938e-02
5.884600687810469938e-02
7.871608712265953933e-02
7.871608712265953933e-02
8.559419182269774329e-02
8.559419182269774329e-02
8.559419182269774329e-02
7.260221627818112811e-02
7.260221627818112811e-02
7.642338555598013339e-02
7.642338555598013339e-02
7.642338555598013339e-02
9.591134887275505616e-02
9.591134887275505616e-02
9.820405043943446211e-02
9.820405043943446211e-02
9.820405043943446211e-02
1.142529614061902898e-01
1.142529614061902898e-01
1.283912877340466219e-01
1.283912877340466219e-01
1.283912877340466219e-01
1.501719526175009645e-01
1.501719526175009645e-01
1.658387466564768820e-01
1.658387466564768820e-01
1.658387466564768820e-01
1.841803591899121018e-01
1.841803591899121018e-01
1.795949560565533176e-01
1.795949560565533176e-01
1.795949560565533176e-01
2.136033626289644549e-01
2.136033626289644549e-01
2.216278181123423896e-01
2.216278181123423896e-01
2.216278181123423896e-01
2.376767290790982035e-01
2.376767290790982035e-01
2.376767290790982035e-01
2.376767290790982035e-01
2.376767290790982035e-01
2.430263660680168081e-01
