1.390905617118838311e-01
1.390905617118838311e-01
1.077569736339319822e-01
1.077569736339319822e-01
1.077569736339319822e-01
1.230416507451280034e-01
1.230416507451280034e-01
1.089033244172716852e-01
1.089033244172716852e-01
1.089033244172716852e-01
1.096675582728314918e-01
1.096675582728314918e-01
1.367978601452044252e-01
1.367978601452044252e-01
1.367978601452044252e-01
1.333588077951853301e-01
1.333588077951853301e-01
1.352693924340848397e-01
1.352693924340848397e-01
1.352693924340848397e-01
1.364157432174245288e-01
1.364157432174245288e-01
1.356515093618647361e-01
1.356515093618647361e-01
1.356515093618647361e-01
1.348872755063049156e-01
1.348872755063049156e-01
1.337409247229652265e-01
1.337409247229652265e-01
1.337409247229652265e-01
1.192204814673289981e-01
1.192204814673289981e-01
1.318303400840657169e-01
1.318303400840657169e-01
1.318303400840657169e-01
1.039358043561329770e-01
1.039358043561329770e-01
1.314482231562858205e-01
1.314482231562858205e-01
1.314482231562858205e-01
9.858616736721437235e-02
9.858616736721437235e-02
1.192204814673289981e-01
1.192204814673289981e-01
1.192204814673289981e-01
1.020252197172334674e-01
1.020252197172334674e-01
1.035536874283530806e-01
1.035536874283530806e-01
1.035536874283530806e-01
1.280091708062667255e-01
1.280091708062667255e-01
1.031715705005731704e-01
1.031715705005731704e-01
1.031715705005731704e-01
1.058463889950324865e-01
1.058463889950324865e-01
1.142529614061902898e-01
1.142529614061902898e-01
1.142529614061902898e-01
1.108139090561711948e-01
1.108139090561711948e-01
1.272449369507069050e-01
1.272449369507069050e-01
1.272449369507069050e-01
1.138708444784103935e-01
1.138708444784103935e-01
1.199847153228888047e-01
1.199847153228888047e-01
1.199847153228888047e-01
1.345051585785250192e-01
1.345051585785250192e-01
1.058463889950324865e-01
1.058463889950324865e-01
1.058463889950324865e-01
1.150171952617500964e-01
1.150171952617500964e-01
1.432938479174627466e-01
1.432938479174627466e-01
1.432938479174627466e-01
1.345051585785250192e-01
1.345051585785250192e-01
1.490256018341612476e-01
1.490256018341612476e-01
1.490256018341612476e-01
1.211310661062285077e-01
1.211310661062285077e-01
1.291555215896064146e-01
1.291555215896064146e-01
1.291555215896064146e-01
1.513183034008406536e-01
1.513183034008406536e-01
1.379442109285441420e-01
1.379442109285441420e-01
1.379442109285441420e-01
1.459686664119220489e-01
1.459686664119220489e-01
1.562858234619793618e-01
1.562858234619793618e-01
1.562858234619793618e-01
1.662208635842567783e-01
1.662208635842567783e-01
1.730989682842949962e-01
1.730989682842949962e-01
1.730989682842949962e-01
1.780664883454337044e-01
1.780664883454337044e-01
1.872372946121513282e-01
1.872372946121513282e-01
1.872372946121513282e-01
2.227741688956820787e-01
2.227741688956820787e-01
1.975544516622086411e-01
1.975544516622086411e-01
1.975544516622086411e-01
2.078716087122659539e-01
2.078716087122659539e-01
2.170424149789835777e-01
2.170424149789835777e-01
2.170424149789835777e-01
2.269774551012609942e-01
2.269774551012609942e-01
2.315628582346198061e-01
2.315628582346198061e-01
2.315628582346198061e-01
2.663354986625907639e-01
2.663354986625907639e-01
2.491402369124952332e-01
2.491402369124952332e-01
2.491402369124952332e-01
2.690103171570500384e-01
2.690103171570500384e-01
2.724493695070691612e-01
2.724493695070691612e-01
2.724493695070691612e-01
2.976690867405425989e-01
2.976690867405425989e-01
2.739778372181887467e-01
2.739778372181887467e-01
2.739778372181887467e-01
3.041650745128008926e-01
3.041650745128008926e-01
2.907909820405044088e-01
2.907909820405044088e-01
2.907909820405044088e-01
2.984333205961023916e-01
2.984333205961023916e-01
3.011081390905617217e-01
3.011081390905617217e-01
3.011081390905617217e-01
3.095147115017195527e-01
3.095147115017195527e-01
3.270920901795949520e-01
3.270920901795949520e-01
3.270920901795949520e-01
3.163928162017577428e-01
3.163928162017577428e-01
3.458158196408100959e-01
3.458158196408100959e-01
3.458158196408100959e-01
3.274742071073748484e-01
3.274742071073748484e-01
3.500191058463890115e-01
3.500191058463890115e-01
3.500191058463890115e-01
3.259457393962552629e-01
3.259457393962552629e-01
3.347344287351929903e-01
3.347344287351929903e-01
3.347344287351929903e-01
3.546045089797478234e-01
3.546045089797478234e-01
3.332059610240733494e-01
3.332059610240733494e-01
3.332059610240733494e-01
3.347344287351929903e-01
3.347344287351929903e-01
3.370271303018723685e-01
3.370271303018723685e-01
3.370271303018723685e-01
3.488727550630492669e-01
3.488727550630492669e-01
3.404661826518914913e-01
3.404661826518914913e-01
3.404661826518914913e-01
3.370271303018723685e-01
3.370271303018723685e-01
3.427588842185708695e-01
3.427588842185708695e-01
3.427588842185708695e-01
3.656858998853649290e-01
3.656858998853649290e-01
3.500191058463890115e-01
3.500191058463890115e-01
3.500191058463890115e-01
3.649216660298051362e-01
3.649216660298051362e-01
3.534581581964080788e-01
3.534581581964080788e-01
3.439052350019105586e-01
3.439052350019105586e-01
3.439052350019105586e-01
3.752388230798624491e-01
3.752388230798624491e-01
3.691249522353840518e-01
3.691249522353840518e-01
3.691249522353840518e-01
3.649216660298051362e-01
3.649216660298051362e-01
3.790599923576614683e-01
3.790599923576614683e-01
3.790599923576614683e-01
3.603362628964463243e-01
3.603362628964463243e-01
3.790599923576614683e-01
3.790599923576614683e-01
3.790599923576614683e-01
3.622468475353458062e-01
3.622468475353458062e-01
3.805884600687810537e-01
3.805884600687810537e-01
3.805884600687810537e-01
3.504012227741689078e-01
3.504012227741689078e-01
3.488727550630492669e-01
3.488727550630492669e-01
3.488727550630492669e-01
3.779136415743217237e-01
3.779136415743217237e-01
3.637753152464653916e-01
3.637753152464653916e-01
3.637753152464653916e-01
3.500191058463890115e-01
3.500191058463890115e-01
3.687428353076040999e-01
3.687428353076040999e-01
3.687428353076040999e-01
3.630110813909055989e-01
3.630110813909055989e-01
3.477264042797095778e-01
3.477264042797095778e-01
3.477264042797095778e-01
3.691249522353840518e-01
3.691249522353840518e-01
3.767672907909820346e-01
3.767672907909820346e-01
3.767672907909820346e-01
3.752388230798624491e-01
3.752388230798624491e-01
3.519296904852884933e-01
3.519296904852884933e-01
3.519296904852884933e-01
3.645395491020252399e-01
3.645395491020252399e-01
3.435231180741306622e-01
3.435231180741306622e-01
3.435231180741306622e-01
3.461979365685899923e-01
3.461979365685899923e-01
3.435231180741306622e-01
3.435231180741306622e-01
3.435231180741306622e-01
3.393198318685518022e-01
3.393198318685518022e-01
3.656858998853649290e-01
3.656858998853649290e-01
3.656858998853649290e-01
3.473442873519296814e-01
3.473442873519296814e-01
3.576614444019869943e-01
3.576614444019869943e-01
3.576614444019869943e-01
3.530760412686281824e-01
3.530760412686281824e-01
3.305311425296140748e-01
3.305311425296140748e-01
3.305311425296140748e-01
3.416125334352311804e-01
3.416125334352311804e-01
3.553687428353076161e-01
3.553687428353076161e-01
3.553687428353076161e-01
3.416125334352311804e-01
3.416125334352311804e-01
3.309132594573939712e-01
3.309132594573939712e-01
3.309132594573939712e-01
3.446694688574704069e-01
3.446694688574704069e-01
3.385555980129919540e-01
3.385555980129919540e-01
3.385555980129919540e-01
3.186855177684371210e-01
3.186855177684371210e-01
3.354986625907527831e-01
3.354986625907527831e-01
3.354986625907527831e-01
3.102789453572793454e-01
3.102789453572793454e-01
3.118074130683989309e-01
3.118074130683989309e-01
3.118074130683989309e-01
3.236530378295758292e-01
3.236530378295758292e-01
2.953763851738632207e-01
2.953763851738632207e-01
2.953763851738632207e-01
2.938479174627435797e-01
2.938479174627435797e-01
3.167749331295376392e-01
3.167749331295376392e-01
3.167749331295376392e-01
2.911730989682843052e-01
2.911730989682843052e-01
2.816201757737867850e-01
2.816201757737867850e-01
2.816201757737867850e-01
2.854413450515858042e-01
2.854413450515858042e-01
2.915552158960642015e-01
2.915552158960642015e-01
2.915552158960642015e-01
2.995796713794421362e-01
2.995796713794421362e-01
2.881161635460450787e-01
2.881161635460450787e-01
2.881161635460450787e-01
2.697745510126098312e-01
2.697745510126098312e-01
2.575468093236530365e-01
2.575468093236530365e-01
2.575468093236530365e-01
2.567825754680932437e-01
2.567825754680932437e-01
2.598395108903324147e-01
2.598395108903324147e-01
2.598395108903324147e-01
2.835307604126862668e-01
2.835307604126862668e-01
2.525792892625143282e-01
2.525792892625143282e-01
2.525792892625143282e-01
2.804738249904470959e-01
2.804738249904470959e-01
2.449369507069163177e-01
2.449369507069163177e-01
2.449369507069163177e-01
2.445548337791364213e-01
2.445548337791364213e-01
2.747420710737485394e-01
2.747420710737485394e-01
2.747420710737485394e-01
2.556362246847535546e-01
2.556362246847535546e-01
2.686282002292701421e-01
2.686282002292701421e-01
2.686282002292701421e-01
2.525792892625143282e-01
2.525792892625143282e-01
2.510508215513947428e-01
2.510508215513947428e-01
2.510508215513947428e-01
2.369124952235384107e-01
2.369124952235384107e-01
2.579289262514329328e-01
2.579289262514329328e-01
2.579289262514329328e-01
2.625143293847917447e-01
2.625143293847917447e-01
2.617500955292319520e-01
2.617500955292319520e-01
2.617500955292319520e-01
2.602216278181123665e-01
2.602216278181123665e-01
2.510508215513947428e-01
2.510508215513947428e-01
2.510508215513947428e-01
2.372946121513183071e-01
2.372946121513183071e-01
2.395873137179977130e-01
2.395873137179977130e-01
2.395873137179977130e-01
2.487581199847153091e-01
2.487581199847153091e-01
2.262132212457011737e-01
2.262132212457011737e-01
2.262132212457011737e-01
2.468475353458158272e-01
2.468475353458158272e-01
2.476117692013756200e-01
2.476117692013756200e-01
2.476117692013756200e-01
2.487581199847153091e-01
2.487581199847153091e-01
2.468475353458158272e-01
2.468475353458158272e-01
2.468475353458158272e-01
2.479938861291555163e-01
2.479938861291555163e-01
2.430263660680168081e-01
2.430263660680168081e-01
2.460833014902560067e-01
2.460833014902560067e-01
2.460833014902560067e-01
2.193351165456629837e-01
2.193351165456629837e-01
2.330913259457393916e-01
2.330913259457393916e-01
2.330913259457393916e-01
2.170424149789835777e-01
2.170424149789835777e-01
2.197172334734428800e-01
2.197172334734428800e-01
2.197172334734428800e-01
2.185708826901031632e-01
2.185708826901031632e-01
2.434084829957967044e-01
2.434084829957967044e-01
2.434084829957967044e-01
2.445548337791364213e-01
2.445548337791364213e-01
2.174245319067634741e-01
2.174245319067634741e-01
2.174245319067634741e-01
2.116927779900649731e-01
2.116927779900649731e-01
2.296522735957202965e-01
2.296522735957202965e-01
2.296522735957202965e-01
2.380588460068780998e-01
2.380588460068780998e-01
2.094000764233855671e-01
2.094000764233855671e-01
2.094000764233855671e-01
2.262132212457011737e-01
2.262132212457011737e-01
2.361482613679785902e-01
2.361482613679785902e-01
2.361482613679785902e-01
2.147497134123041718e-01
2.147497134123041718e-01
2.139854795567443513e-01
2.139854795567443513e-01
2.139854795567443513e-01
2.090179594956056430e-01
2.090179594956056430e-01
2.090179594956056430e-01
2.090179594956056430e-01
2.090179594956056430e-01
1.987008024455483302e-01
1.987008024455483302e-01
1.967902178066488483e-01
1.967902178066488483e-01
1.967902178066488483e-01
2.021398547955674529e-01
2.021398547955674529e-01
2.101643102789453599e-01
2.101643102789453599e-01
2.101643102789453599e-01
2.132212457011845586e-01
2.132212457011845586e-01
2.059610240733664444e-01
2.059610240733664444e-01
2.059610240733664444e-01
2.101643102789453599e-01
2.101643102789453599e-01
1.925869316010699328e-01
1.925869316010699328e-01
1.925869316010699328e-01
2.021398547955674529e-01
2.021398547955674529e-01
1.883836453954910173e-01
1.883836453954910173e-01
1.883836453954910173e-01
2.151318303400840681e-01
2.151318303400840681e-01
1.979365685899885374e-01
1.979365685899885374e-01
1.979365685899885374e-01
1.860909438288116113e-01
1.860909438288116113e-01
2.147497134123041718e-01
2.147497134123041718e-01
2.147497134123041718e-01
1.826518914787925163e-01
1.826518914787925163e-01
1.918226977455101123e-01
1.918226977455101123e-01
1.918226977455101123e-01
2.078716087122659539e-01
2.078716087122659539e-01
1.979365685899885374e-01
1.979365685899885374e-01
1.979365685899885374e-01
1.944975162399694424e-01
1.944975162399694424e-01
1.960259839510890278e-01
1.960259839510890278e-01
1.960259839510890278e-01
1.883836453954910173e-01
1.883836453954910173e-01
1.952617500955292351e-01
1.952617500955292351e-01
1.952617500955292351e-01
1.880015284677111209e-01
1.880015284677111209e-01
1.841803591899121018e-01
1.841803591899121018e-01
1.841803591899121018e-01
1.715705005731753829e-01
1.715705005731753829e-01
1.990829193733282265e-01
1.990829193733282265e-01
1.990829193733282265e-01
1.696599159342759011e-01
1.696599159342759011e-01
1.711883836453954866e-01
1.711883836453954866e-01
1.711883836453954866e-01
1.979365685899885374e-01
1.979365685899885374e-01
1.658387466564768820e-01
1.658387466564768820e-01
1.658387466564768820e-01
1.837982422621322054e-01
1.837982422621322054e-01
1.646923958731371929e-01
1.646923958731371929e-01
1.646923958731371929e-01
1.643102789453572687e-01
1.643102789453572687e-01
1.688956820787160806e-01
1.688956820787160806e-01
1.688956820787160806e-01
1.730989682842949962e-01
1.730989682842949962e-01
1.776843714176538080e-01
1.776843714176538080e-01
1.776843714176538080e-01
1.673672143675964952e-01
1.673672143675964952e-01
1.857088269010317150e-01
1.857088269010317150e-01
1.857088269010317150e-01
1.616354604508979664e-01
1.616354604508979664e-01
1.581964081008788714e-01
1.581964081008788714e-01
1.581964081008788714e-01
1.761559037065341948e-01
1.761559037065341948e-01
1.673672143675964952e-01
1.673672143675964952e-01
1.673672143675964952e-01
1.589606419564386641e-01
1.589606419564386641e-01
1.562858234619793618e-01
1.562858234619793618e-01
1.562858234619793618e-01
1.715705005731753829e-01
1.715705005731753829e-01
1.803591899121131104e-01
1.803591899121131104e-01
1.803591899121131104e-01
1.750095529231945057e-01
1.750095529231945057e-01
1.818876576232326958e-01
1.818876576232326958e-01
1.818876576232326958e-01
1.853267099732518186e-01
1.853267099732518186e-01
1.742453190676346853e-01
1.742453190676346853e-01
1.742453190676346853e-01
1.635460450897974760e-01
1.635460450897974760e-01
1.685135651509361843e-01
1.685135651509361843e-01
1.685135651509361843e-01
1.643102789453572687e-01
1.643102789453572687e-01
1.471150171952617380e-01
1.471150171952617380e-01
1.471150171952617380e-01
1.566679403897592582e-01
1.566679403897592582e-01
1.452044325563622562e-01
1.452044325563622562e-01
1.452044325563622562e-01
1.497898356897210681e-01
1.497898356897210681e-01
1.639281620175773724e-01
1.639281620175773724e-01
1.639281620175773724e-01
1.471150171952617380e-01
1.471150171952617380e-01
1.517004203286205499e-01
1.517004203286205499e-01
1.517004203286205499e-01
1.383263278563240384e-01
1.383263278563240384e-01
1.440580817730225394e-01
1.440580817730225394e-01
1.440580817730225394e-01
1.421474971341230298e-01
1.421474971341230298e-01
1.410011463507833407e-01
1.410011463507833407e-01
1.608712265953381737e-01
1.608712265953381737e-01
1.608712265953381737e-01
1.669850974398165711e-01
1.669850974398165711e-01
1.432938479174627466e-01
1.432938479174627466e-01
1.432938479174627466e-01
1.734810852120748925e-01
1.734810852120748925e-01
1.486434849063813513e-01
1.486434849063813513e-01
1.486434849063813513e-01
1.509361864730607572e-01
1.509361864730607572e-01
1.635460450897974760e-01
1.635460450897974760e-01
1.635460450897974760e-01
1.383263278563240384e-01
1.383263278563240384e-01
1.398547955674436516e-01
1.398547955674436516e-01
1.398547955674436516e-01
1.547573557508597764e-01
1.547573557508597764e-01
1.390905617118838311e-01
1.390905617118838311e-01
1.390905617118838311e-01
1.390905617118838311e-01
1.390905617118838311e-01
1.669850974398165711e-01
1.669850974398165711e-01
1.669850974398165711e-01
1.455865494841421526e-01
1.455865494841421526e-01
1.402369124952235480e-01
1.402369124952235480e-01
1.402369124952235480e-01
1.341230416507451229e-01
1.341230416507451229e-01
1.669850974398165711e-01
1.669850974398165711e-01
1.669850974398165711e-01
1.517004203286205499e-01
1.517004203286205499e-01
1.501719526175009645e-01
1.501719526175009645e-01
1.501719526175009645e-01
1.643102789453572687e-01
1.643102789453572687e-01
1.318303400840657169e-01
1.318303400840657169e-01
1.318303400840657169e-01
1.318303400840657169e-01
1.318303400840657169e-01
1.539931218952999559e-01
1.539931218952999559e-01
1.539931218952999559e-01
1.604891096675582773e-01
1.604891096675582773e-01
1.390905617118838311e-01
1.390905617118838311e-01
1.390905617118838311e-01
1.471150171952617380e-01
1.471150171952617380e-01
1.299197554451662073e-01
1.299197554451662073e-01
1.299197554451662073e-01
1.318303400840657169e-01
1.318303400840657169e-01
1.303018723729461315e-01
1.303018723729461315e-01
1.303018723729461315e-01
1.589606419564386641e-01
1.589606419564386641e-01
1.543752388230798522e-01
1.543752388230798522e-01
1.543752388230798522e-01
1.360336262896446324e-01
1.360336262896446324e-01
1.337409247229652265e-01
1.337409247229652265e-01
1.337409247229652265e-01
1.306839893007260278e-01
1.306839893007260278e-01
1.520825372564004463e-01
1.520825372564004463e-01
1.520825372564004463e-01
1.421474971341230298e-01
1.421474971341230298e-01
1.245701184562476166e-01
1.245701184562476166e-01
1.245701184562476166e-01
1.570500573175391545e-01
1.570500573175391545e-01
1.387084447841039347e-01
1.387084447841039347e-01
1.387084447841039347e-01
1.345051585785250192e-01
1.345051585785250192e-01
1.486434849063813513e-01
1.486434849063813513e-01
1.486434849063813513e-01
1.218952999617883004e-01
1.218952999617883004e-01
1.364157432174245288e-01
1.364157432174245288e-01
1.364157432174245288e-01
1.272449369507069050e-01
1.272449369507069050e-01
1.371799770729843215e-01
1.371799770729843215e-01
1.371799770729843215e-01
1.215131830340084040e-01
1.215131830340084040e-01
1.432938479174627466e-01
1.432938479174627466e-01
1.432938479174627466e-01
1.257164692395873196e-01
1.257164692395873196e-01
1.459686664119220489e-01
1.459686664119220489e-01
1.459686664119220489e-01
1.497898356897210681e-01
1.497898356897210681e-01
1.253343523118074232e-01
1.253343523118074232e-01
1.253343523118074232e-01
1.218952999617883004e-01
1.218952999617883004e-01
1.429117309896828503e-01
1.429117309896828503e-01
1.429117309896828503e-01
1.226595338173481070e-01
1.226595338173481070e-01
1.383263278563240384e-01
1.383263278563240384e-01
1.383263278563240384e-01
1.260985861673672159e-01
1.260985861673672159e-01
1.280091708062667255e-01
1.280091708062667255e-01
1.280091708062667255e-01
1.432938479174627466e-01
1.432938479174627466e-01
1.459686664119220489e-01
1.459686664119220489e-01
1.459686664119220489e-01
1.589606419564386641e-01
1.589606419564386641e-01
1.276270538784868291e-01
1.276270538784868291e-01
1.276270538784868291e-01
1.562858234619793618e-01
1.562858234619793618e-01
1.364157432174245288e-01
1.364157432174245288e-01
1.364157432174245288e-01
1.570500573175391545e-01
1.570500573175391545e-01
1.612533435231180701e-01
1.612533435231180701e-01
1.612533435231180701e-01
1.769201375620939876e-01
1.769201375620939876e-01
1.746274359954146094e-01
1.746274359954146094e-01
1.746274359954146094e-01
1.601069927397783810e-01
1.601069927397783810e-01
1.780664883454337044e-01
1.780664883454337044e-01
1.780664883454337044e-01
1.937332823844096219e-01
1.937332823844096219e-01
1.815055406954527994e-01
1.815055406954527994e-01
1.815055406954527994e-01
2.128391287734046622e-01
2.128391287734046622e-01
2.200993504012227764e-01
2.200993504012227764e-01
2.200993504012227764e-01
2.032862055789071420e-01
2.032862055789071420e-01
2.113106610622850490e-01
2.113106610622850490e-01
2.113106610622850490e-01
2.472296522735957236e-01
2.472296522735957236e-01
2.231562858234619751e-01
2.231562858234619751e-01
2.231562858234619751e-01
2.430263660680168081e-01
2.430263660680168081e-01
2.720672525792892649e-01
2.720672525792892649e-01
2.720672525792892649e-01
2.606037447458922629e-01
2.606037447458922629e-01
2.873519296904852860e-01
2.873519296904852860e-01
2.938479174627435797e-01
2.938479174627435797e-01
2.938479174627435797e-01
2.846771111960260114e-01
2.846771111960260114e-01
3.056935422239205336e-01
3.056935422239205336e-01
3.056935422239205336e-01
2.827665265571264741e-01
2.827665265571264741e-01
3.205961024073366583e-01
3.205961024073366583e-01
3.205961024073366583e-01
2.961406190294230134e-01
2.961406190294230134e-01
3.053114252961406372e-01
3.053114252961406372e-01
3.053114252961406372e-01
3.385555980129919540e-01
3.385555980129919540e-01
3.446694688574704069e-01
3.446694688574704069e-01
3.446694688574704069e-01
3.186855177684371210e-01
3.186855177684371210e-01
3.290026748184944339e-01
3.290026748184944339e-01
3.290026748184944339e-01
3.328238440962934530e-01
3.328238440962934530e-01
3.622468475353458062e-01
3.622468475353458062e-01
3.622468475353458062e-01
3.412304165074512841e-01
3.412304165074512841e-01
3.572793274742070979e-01
3.572793274742070979e-01
3.572793274742070979e-01
3.504012227741689078e-01
3.504012227741689078e-01
3.603362628964463243e-01
3.603362628964463243e-01
3.603362628964463243e-01
3.717997707298433263e-01
3.717997707298433263e-01
3.584256782575467870e-01
3.584256782575467870e-01
3.584256782575467870e-01
3.584256782575467870e-01
3.584256782575467870e-01
3.683607183798242035e-01
3.683607183798242035e-01
3.683607183798242035e-01
3.805884600687810537e-01
3.805884600687810537e-01
3.542223920519679270e-01
3.542223920519679270e-01
3.542223920519679270e-01
3.584256782575467870e-01
3.584256782575467870e-01
3.744745892243026564e-01
3.744745892243026564e-01
3.744745892243026564e-01
3.611004967520061171e-01
3.611004967520061171e-01
3.576614444019869943e-01
3.576614444019869943e-01
3.576614444019869943e-01
3.790599923576614683e-01
3.790599923576614683e-01
3.771494077187619309e-01
3.771494077187619309e-01
3.771494077187619309e-01
3.595720290408865316e-01
3.595720290408865316e-01
3.607183798242262207e-01
3.607183798242262207e-01
3.607183798242262207e-01
3.844096293465800729e-01
3.844096293465800729e-01
3.653037829575850326e-01
3.653037829575850326e-01
3.653037829575850326e-01
3.813526939243408465e-01
3.813526939243408465e-01
3.962552541077569712e-01
3.962552541077569712e-01
3.962552541077569712e-01
3.672143675964845144e-01
3.672143675964845144e-01
3.668322506687046181e-01
3.668322506687046181e-01
3.668322506687046181e-01
3.763851738632021382e-01
3.763851738632021382e-01
3.660680168131448253e-01
3.660680168131448253e-01
3.660680168131448253e-01
3.702713030187237409e-01
3.702713030187237409e-01
3.637753152464653916e-01
3.637753152464653916e-01
3.637753152464653916e-01
3.931983186855177448e-01
3.931983186855177448e-01
3.767672907909820346e-01
3.767672907909820346e-01
3.767672907909820346e-01
3.675964845242644108e-01
3.675964845242644108e-01
3.695070691631639481e-01
3.695070691631639481e-01
3.695070691631639481e-01
3.626289644631257025e-01
3.626289644631257025e-01
3.939625525410775930e-01
3.939625525410775930e-01
3.939625525410775930e-01
3.790599923576614683e-01
3.790599923576614683e-01
3.672143675964845144e-01
3.672143675964845144e-01
3.672143675964845144e-01
3.664501337409247217e-01
3.664501337409247217e-01
3.974016048910966603e-01
3.974016048910966603e-01
3.974016048910966603e-01
3.748567061520825527e-01
3.748567061520825527e-01
3.737103553687428081e-01
3.737103553687428081e-01
3.737103553687428081e-01
3.840275124188001765e-01
3.840275124188001765e-01
3.656858998853649290e-01
3.656858998853649290e-01
3.656858998853649290e-01
3.794421092854413646e-01
3.794421092854413646e-01
3.542223920519679270e-01
3.542223920519679270e-01
3.542223920519679270e-01
3.561329766908674088e-01
3.561329766908674088e-01
3.775315246465418273e-01
3.775315246465418273e-01
3.775315246465418273e-01
3.500191058463890115e-01
3.500191058463890115e-01
3.779136415743217237e-01
3.779136415743217237e-01
3.779136415743217237e-01
3.760030569354222418e-01
3.760030569354222418e-01
3.400840657241115950e-01
3.400840657241115950e-01
3.400840657241115950e-01
3.633931983186854953e-01
3.633931983186854953e-01
3.679786014520443072e-01
3.679786014520443072e-01
3.679786014520443072e-01
3.442873519296905105e-01
3.442873519296905105e-01
3.431410011463507659e-01
3.431410011463507659e-01
3.431410011463507659e-01
3.458158196408100959e-01
3.458158196408100959e-01
3.328238440962934530e-01
3.328238440962934530e-01
3.328238440962934530e-01
3.259457393962552629e-01
3.259457393962552629e-01
3.305311425296140748e-01
3.305311425296140748e-01
3.305311425296140748e-01
3.240351547573557256e-01
3.240351547573557256e-01
3.328238440962934530e-01
3.328238440962934530e-01
3.328238440962934530e-01
3.209782193351165547e-01
3.209782193351165547e-01
3.064577760794803263e-01
3.064577760794803263e-01
3.064577760794803263e-01
3.049293083683607408e-01
3.049293083683607408e-01
3.014902560183416180e-01
3.014902560183416180e-01
3.014902560183416180e-01
3.049293083683607408e-01
3.049293083683607408e-01
3.014902560183416180e-01
3.014902560183416180e-01
3.014902560183416180e-01
2.896446312571647197e-01
2.896446312571647197e-01
3.163928162017577428e-01
3.163928162017577428e-01
3.163928162017577428e-01
3.144822315628582610e-01
3.144822315628582610e-01
3.045471914405808445e-01
3.045471914405808445e-01
2.995796713794421362e-01
2.995796713794421362e-01
2.995796713794421362e-01
3.026366068016813071e-01
3.026366068016813071e-01
2.713030187237294721e-01
2.713030187237294721e-01
2.713030187237294721e-01
2.988154375238822880e-01
2.988154375238822880e-01
2.789453572793274549e-01
2.789453572793274549e-01
2.789453572793274549e-01
2.827665265571264741e-01
2.827665265571264741e-01
2.594573939625525183e-01
2.594573939625525183e-01
2.594573939625525183e-01
2.881161635460450787e-01
2.881161635460450787e-01
2.575468093236530365e-01
2.575468093236530365e-01
2.575468093236530365e-01
2.831486434849063705e-01
2.831486434849063705e-01
2.613679786014520556e-01
2.613679786014520556e-01
2.613679786014520556e-01
2.693924340848299348e-01
2.693924340848299348e-01
2.476117692013756200e-01
2.476117692013756200e-01
2.476117692013756200e-01
2.460833014902560067e-01
2.460833014902560067e-01
2.449369507069163177e-01
2.449369507069163177e-01
2.449369507069163177e-01
2.732136033626289540e-01
2.732136033626289540e-01
2.613679786014520556e-01
2.613679786014520556e-01
2.613679786014520556e-01
2.487581199847153091e-01
2.487581199847153091e-01
2.651891478792510748e-01
2.651891478792510748e-01
2.651891478792510748e-01
2.644249140236912266e-01
2.644249140236912266e-01
2.414978983568972226e-01
2.414978983568972226e-01
2.414978983568972226e-01
2.357661444401986939e-01
2.357661444401986939e-01
2.372946121513183071e-01
2.372946121513183071e-01
2.372946121513183071e-01
2.579289262514329328e-01
2.579289262514329328e-01
2.346197936568590048e-01
2.346197936568590048e-01
2.346197936568590048e-01
2.254489873901413810e-01
2.254489873901413810e-01
2.323270920901795988e-01
2.323270920901795988e-01
2.323270920901795988e-01
2.262132212457011737e-01
2.262132212457011737e-01
2.220099350401222860e-01
2.220099350401222860e-01
2.220099350401222860e-01
2.476117692013756200e-01
2.476117692013756200e-01
2.460833014902560067e-01
2.460833014902560067e-01
2.460833014902560067e-01
2.170424149789835777e-01
2.170424149789835777e-01
2.250668704623614846e-01
2.250668704623614846e-01
2.250668704623614846e-01
2.445548337791364213e-01
2.445548337791364213e-01
2.147497134123041718e-01
2.147497134123041718e-01
2.147497134123041718e-01
2.445548337791364213e-01
2.445548337791364213e-01
2.216278181123423896e-01
2.216278181123423896e-01
2.216278181123423896e-01
2.445548337791364213e-01
2.445548337791364213e-01
2.296522735957202965e-01
2.296522735957202965e-01
2.296522735957202965e-01
2.101643102789453599e-01
2.101643102789453599e-01
2.323270920901795988e-01
2.323270920901795988e-01
2.323270920901795988e-01
2.395873137179977130e-01
2.395873137179977130e-01
2.143675964845242754e-01
2.143675964845242754e-01
2.143675964845242754e-01
2.277416889568207869e-01
2.277416889568207869e-01
2.334734428735192879e-01
2.334734428735192879e-01
2.334734428735192879e-01
2.063431410011463407e-01
2.063431410011463407e-01
2.094000764233855671e-01
2.094000764233855671e-01
2.094000764233855671e-01
2.166602980512036813e-01
2.166602980512036813e-01
2.269774551012609942e-01
2.269774551012609942e-01
2.269774551012609942e-01
2.006113870844478397e-01
2.006113870844478397e-01
2.327092090179594952e-01
2.327092090179594952e-01
2.327092090179594952e-01
1.987008024455483302e-01
1.987008024455483302e-01
2.143675964845242754e-01
2.143675964845242754e-01
2.143675964845242754e-01
1.925869316010699328e-01
1.925869316010699328e-01
2.009935040122277361e-01
2.009935040122277361e-01
2.009935040122277361e-01
2.002292701566679434e-01
2.002292701566679434e-01
2.181887657623232668e-01
2.181887657623232668e-01
2.181887657623232668e-01
1.964081008788689242e-01
1.964081008788689242e-01
2.197172334734428800e-01
2.197172334734428800e-01
2.197172334734428800e-01
2.078716087122659539e-01
2.078716087122659539e-01
2.032862055789071420e-01
2.032862055789071420e-01
2.032862055789071420e-01
2.143675964845242754e-01
2.143675964845242754e-01
1.956438670233091315e-01
1.956438670233091315e-01
1.956438670233091315e-01
2.143675964845242754e-01
2.143675964845242754e-01
2.116927779900649731e-01
2.116927779900649731e-01
2.116927779900649731e-01
2.113106610622850490e-01
2.113106610622850490e-01
1.776843714176538080e-01
1.776843714176538080e-01
1.776843714176538080e-01
1.925869316010699328e-01
1.925869316010699328e-01
2.074894917844860576e-01
2.074894917844860576e-01
2.074894917844860576e-01
2.025219717233473493e-01
2.025219717233473493e-01
1.761559037065341948e-01
1.761559037065341948e-01
1.761559037065341948e-01
2.032862055789071420e-01
2.032862055789071420e-01
1.845624761176920259e-01
1.845624761176920259e-01
1.845624761176920259e-01
1.826518914787925163e-01
1.826518914787925163e-01
1.975544516622086411e-01
1.975544516622086411e-01
1.975544516622086411e-01
1.895299961788307341e-01
1.895299961788307341e-01
1.795949560565533176e-01
1.795949560565533176e-01
1.795949560565533176e-01
1.719526175009552793e-01
1.719526175009552793e-01
1.780664883454337044e-01
1.780664883454337044e-01
1.780664883454337044e-01
1.841803591899121018e-01
1.841803591899121018e-01
1.681314482231562879e-01
1.681314482231562879e-01
1.700420328620557975e-01
1.700420328620557975e-01
1.700420328620557975e-01
1.627818112342376833e-01
1.627818112342376833e-01
1.639281620175773724e-01
1.639281620175773724e-01
1.639281620175773724e-01
1.666029805120366747e-01
1.666029805120366747e-01
1.799770729843332140e-01
1.799770729843332140e-01
1.799770729843332140e-01
1.853267099732518186e-01
1.853267099732518186e-01
1.853267099732518186e-01
1.853267099732518186e-01
1.853267099732518186e-01
1.585785250286587678e-01
1.585785250286587678e-01
1.601069927397783810e-01
1.601069927397783810e-01
1.601069927397783810e-01
1.899121131066106305e-01
1.899121131066106305e-01
1.589606419564386641e-01
1.589606419564386641e-01
1.589606419564386641e-01
1.792128391287733935e-01
1.792128391287733935e-01
1.673672143675964952e-01
1.673672143675964952e-01
1.673672143675964952e-01
1.574321742453190787e-01
1.574321742453190787e-01
1.723347344287352034e-01
1.723347344287352034e-01
1.723347344287352034e-01
1.574321742453190787e-01
1.574321742453190787e-01
1.627818112342376833e-01
1.627818112342376833e-01
1.627818112342376833e-01
1.792128391287733935e-01
1.792128391287733935e-01
1.635460450897974760e-01
1.635460450897974760e-01
1.635460450897974760e-01
1.646923958731371929e-01
1.646923958731371929e-01
1.719526175009552793e-01
1.719526175009552793e-01
1.719526175009552793e-01
1.788307222009934971e-01
1.788307222009934971e-01
1.559037065341994654e-01
1.559037065341994654e-01
1.559037065341994654e-01
1.478792510508215585e-01
1.478792510508215585e-01
1.482613679786014549e-01
1.482613679786014549e-01
1.482613679786014549e-01
1.742453190676346853e-01
1.742453190676346853e-01
1.688956820787160806e-01
1.688956820787160806e-01
1.688956820787160806e-01
1.566679403897592582e-01
1.566679403897592582e-01
1.490256018341612476e-01
1.490256018341612476e-01
1.490256018341612476e-01
1.666029805120366747e-01
1.666029805120366747e-01
1.413832632785632371e-01
1.413832632785632371e-01
1.413832632785632371e-01
1.429117309896828503e-01
1.429117309896828503e-01
1.723347344287352034e-01
1.723347344287352034e-01
1.723347344287352034e-01
1.517004203286205499e-01
1.517004203286205499e-01
1.677493312953763915e-01
1.677493312953763915e-01
1.677493312953763915e-01
1.601069927397783810e-01
1.601069927397783810e-01
1.410011463507833407e-01
1.410011463507833407e-01
1.410011463507833407e-01
1.646923958731371929e-01
1.646923958731371929e-01
1.432938479174627466e-01
1.432938479174627466e-01
1.432938479174627466e-01
1.375620940007642456e-01
1.375620940007642456e-01
1.413832632785632371e-01
1.413832632785632371e-01
1.413832632785632371e-01
1.604891096675582773e-01
1.604891096675582773e-01
1.612533435231180701e-01
1.612533435231180701e-01
1.612533435231180701e-01
1.425296140619029539e-01
1.425296140619029539e-01
1.375620940007642456e-01
1.375620940007642456e-01
1.375620940007642456e-01
1.348872755063049156e-01
1.348872755063049156e-01
1.318303400840657169e-01
1.318303400840657169e-01
1.318303400840657169e-01
1.620175773786778628e-01
1.620175773786778628e-01
1.543752388230798522e-01
1.543752388230798522e-01
1.543752388230798522e-01
1.631639281620175796e-01
1.631639281620175796e-01
1.325945739396255374e-01
1.325945739396255374e-01
1.325945739396255374e-01
1.581964081008788714e-01
1.581964081008788714e-01
1.585785250286587678e-01
1.585785250286587678e-01
1.585785250286587678e-01
1.272449369507069050e-01
1.272449369507069050e-01
1.578142911730989750e-01
1.578142911730989750e-01
1.578142911730989750e-01
1.268628200229270087e-01
1.268628200229270087e-01
1.230416507451280034e-01
1.230416507451280034e-01
1.230416507451280034e-01
1.364157432174245288e-01
1.364157432174245288e-01
1.333588077951853301e-01
1.333588077951853301e-01
1.333588077951853301e-01
1.268628200229270087e-01
1.268628200229270087e-01
1.570500573175391545e-01
1.570500573175391545e-01
1.570500573175391545e-01
1.379442109285441420e-01
1.379442109285441420e-01
1.341230416507451229e-01
1.341230416507451229e-01
1.341230416507451229e-01
1.413832632785632371e-01
1.413832632785632371e-01
1.509361864730607572e-01
1.509361864730607572e-01
1.509361864730607572e-01
1.555215896064195691e-01
1.555215896064195691e-01
1.413832632785632371e-01
1.413832632785632371e-01
1.413832632785632371e-01
1.218952999617883004e-01
1.218952999617883004e-01
1.218952999617883004e-01
1.218952999617883004e-01
1.218952999617883004e-01
1.482613679786014549e-01
1.482613679786014549e-01
1.452044325563622562e-01
1.452044325563622562e-01
1.452044325563622562e-01
1.455865494841421526e-01
1.455865494841421526e-01
1.482613679786014549e-01
1.482613679786014549e-01
1.482613679786014549e-01
1.199847153228888047e-01
1.199847153228888047e-01
1.429117309896828503e-01
1.429117309896828503e-01
1.429117309896828503e-01
1.245701184562476166e-01
1.245701184562476166e-01
1.203668322506687011e-01
1.203668322506687011e-01
1.203668322506687011e-01
1.421474971341230298e-01
1.421474971341230298e-01
1.165456629728696958e-01
1.165456629728696958e-01
1.165456629728696958e-01
1.455865494841421526e-01
1.455865494841421526e-01
1.249522353840275130e-01
1.249522353840275130e-01
1.383263278563240384e-01
1.383263278563240384e-01
1.383263278563240384e-01
1.356515093618647361e-01
1.356515093618647361e-01
1.180741306839892951e-01
1.180741306839892951e-01
1.180741306839892951e-01
1.241880015284677063e-01
1.241880015284677063e-01
1.253343523118074232e-01
1.253343523118074232e-01
1.253343523118074232e-01
1.184562476117692054e-01
1.184562476117692054e-01
1.322124570118456133e-01
1.322124570118456133e-01
1.322124570118456133e-01
1.257164692395873196e-01
1.257164692395873196e-01
1.203668322506687011e-01
1.203668322506687011e-01
1.203668322506687011e-01
1.329766908674054338e-01
1.329766908674054338e-01
1.287734046618265182e-01
1.287734046618265182e-01
1.287734046618265182e-01
1.455865494841421526e-01
1.455865494841421526e-01
1.253343523118074232e-01
1.253343523118074232e-01
1.253343523118074232e-01
1.348872755063049156e-01
1.348872755063049156e-01
1.654566297286969856e-01
1.654566297286969856e-01
1.654566297286969856e-01
1.711883836453954866e-01
1.711883836453954866e-01
1.551394726786396727e-01
1.551394726786396727e-01
1.551394726786396727e-01
1.612533435231180701e-01
1.612533435231180701e-01
1.612533435231180701e-01
1.612533435231180701e-01
1.612533435231180701e-01
1.784486052732136008e-01
1.784486052732136008e-01
1.700420328620557975e-01
1.700420328620557975e-01
1.700420328620557975e-01
2.009935040122277361e-01
2.009935040122277361e-01
1.880015284677111209e-01
1.880015284677111209e-01
1.880015284677111209e-01
2.147497134123041718e-01
2.147497134123041718e-01
2.040504394344669348e-01
2.040504394344669348e-01
2.040504394344669348e-01
2.388230798624378926e-01
2.388230798624378926e-01
2.243026366068016919e-01
2.243026366068016919e-01
2.243026366068016919e-01
2.483760030569354127e-01
2.483760030569354127e-01
2.399694306457776094e-01
2.399694306457776094e-01
2.399694306457776094e-01
2.521971723347344319e-01
2.521971723347344319e-01
2.510508215513947428e-01
2.510508215513947428e-01
2.510508215513947428e-01
2.659533817348108675e-01
2.659533817348108675e-01
2.957585021016431170e-01
2.957585021016431170e-01
2.957585021016431170e-01
2.724493695070691612e-01
2.724493695070691612e-01
3.106610622850592418e-01
3.106610622850592418e-01
3.106610622850592418e-01
3.144822315628582610e-01
3.144822315628582610e-01
2.965227359572029098e-01
2.965227359572029098e-01
2.965227359572029098e-01
3.026366068016813071e-01
3.026366068016813071e-01
3.011081390905617217e-01
3.011081390905617217e-01
3.011081390905617217e-01
3.053114252961406372e-01
3.053114252961406372e-01
3.324417271685135566e-01
3.324417271685135566e-01
3.324417271685135566e-01
3.125716469239587236e-01
3.125716469239587236e-01
3.263278563240351593e-01
3.263278563240351593e-01
3.263278563240351593e-01
3.171570500573175355e-01
3.171570500573175355e-01
3.534581581964080788e-01
3.534581581964080788e-01
3.534581581964080788e-01
3.339701948796331421e-01
3.339701948796331421e-01
3.477264042797095778e-01
3.477264042797095778e-01
3.477264042797095778e-01
3.351165456629728867e-01
3.351165456629728867e-01
3.381734810852120576e-01
3.381734810852120576e-01
3.381734810852120576e-01
3.591899121131066352e-01
3.591899121131066352e-01
3.633931983186854953e-01
3.633931983186854953e-01
3.633931983186854953e-01
3.507833397019488042e-01
3.507833397019488042e-01
3.698891860909438445e-01
3.698891860909438445e-01
3.698891860909438445e-01
3.435231180741306622e-01
3.435231180741306622e-01
3.721818876576232227e-01
3.721818876576232227e-01
3.721818876576232227e-01
3.435231180741306622e-01
3.435231180741306622e-01
3.717997707298433263e-01
3.717997707298433263e-01
3.717997707298433263e-01
3.595720290408865316e-01
3.595720290408865316e-01
3.553687428353076161e-01
3.553687428353076161e-01
3.553687428353076161e-01
3.717997707298433263e-01
3.717997707298433263e-01
3.488727550630492669e-01
3.488727550630492669e-01
3.488727550630492669e-01
3.824990447076805355e-01
3.824990447076805355e-01
3.714176538020634299e-01
3.714176538020634299e-01
3.714176538020634299e-01
3.645395491020252399e-01
3.645395491020252399e-01
3.618647306075659098e-01
3.618647306075659098e-01
3.618647306075659098e-01
3.611004967520061171e-01
3.611004967520061171e-01
3.683607183798242035e-01
3.683607183798242035e-01
3.683607183798242035e-01
3.817348108521207428e-01
3.817348108521207428e-01
3.557508597630875125e-01
3.557508597630875125e-01
3.557508597630875125e-01
3.867023309132594511e-01
3.867023309132594511e-01
3.874665647688192438e-01
3.874665647688192438e-01
3.874665647688192438e-01
3.828811616354604319e-01
3.828811616354604319e-01
3.523118074130683897e-01
3.523118074130683897e-01
3.523118074130683897e-01
3.637753152464653916e-01
3.637753152464653916e-01
3.534581581964080788e-01
3.534581581964080788e-01
3.534581581964080788e-01
3.710355368742835336e-01
3.710355368742835336e-01
3.542223920519679270e-01
3.542223920519679270e-01
3.542223920519679270e-01
3.515475735575085969e-01
3.515475735575085969e-01
3.599541459686664280e-01
3.599541459686664280e-01
3.599541459686664280e-01
3.614826136797860134e-01
3.614826136797860134e-01
3.717997707298433263e-01
3.717997707298433263e-01
3.717997707298433263e-01
3.687428353076040999e-01
3.687428353076040999e-01
3.767672907909820346e-01
3.767672907909820346e-01
3.752388230798624491e-01
3.752388230798624491e-01
3.752388230798624491e-01
3.435231180741306622e-01
3.435231180741306622e-01
3.565150936186473052e-01
3.565150936186473052e-01
3.565150936186473052e-01
3.614826136797860134e-01
3.614826136797860134e-01
3.679786014520443072e-01
3.679786014520443072e-01
3.679786014520443072e-01
3.370271303018723685e-01
3.370271303018723685e-01
3.458158196408100959e-01
3.458158196408100959e-01
3.458158196408100959e-01
3.442873519296905105e-01
3.442873519296905105e-01
3.335880779518532457e-01
3.335880779518532457e-01
3.335880779518532457e-01
3.481085212074894741e-01
3.481085212074894741e-01
3.519296904852884933e-01
3.519296904852884933e-01
3.519296904852884933e-01
3.228888039740160365e-01
3.228888039740160365e-01
3.244172716851356775e-01
3.244172716851356775e-01
3.244172716851356775e-01
3.316774933129537639e-01
3.316774933129537639e-01
3.270920901795949520e-01
3.270920901795949520e-01
3.270920901795949520e-01
3.129537638517386200e-01
3.129537638517386200e-01
3.255636224684753666e-01
3.255636224684753666e-01
3.255636224684753666e-01
3.339701948796331421e-01
3.339701948796331421e-01
3.110431792128391382e-01
3.110431792128391382e-01
3.110431792128391382e-01
2.976690867405425989e-01
2.976690867405425989e-01
3.217424531906763474e-01
3.217424531906763474e-01
3.217424531906763474e-01
2.972869698127627025e-01
2.972869698127627025e-01
2.862055789071455969e-01
2.862055789071455969e-01
2.862055789071455969e-01
2.896446312571647197e-01
2.896446312571647197e-01
2.884982804738249751e-01
2.884982804738249751e-01
2.884982804738249751e-01
3.034008406572410999e-01
3.034008406572410999e-01
2.743599541459686431e-01
2.743599541459686431e-01
2.743599541459686431e-01
2.946121513183034279e-01
2.946121513183034279e-01
2.644249140236912266e-01
2.644249140236912266e-01
2.644249140236912266e-01
2.617500955292319520e-01
2.617500955292319520e-01
2.609858616736721593e-01
2.609858616736721593e-01
2.609858616736721593e-01
2.854413450515858042e-01
2.854413450515858042e-01
2.533435231180741209e-01
2.533435231180741209e-01
2.533435231180741209e-01
2.609858616736721593e-01
2.609858616736721593e-01
2.709209017959495758e-01
2.709209017959495758e-01
2.709209017959495758e-01
2.499044707680550259e-01
2.499044707680550259e-01
2.464654184180359309e-01
2.464654184180359309e-01
2.464654184180359309e-01
2.701566679403897830e-01
2.701566679403897830e-01
2.690103171570500384e-01
2.690103171570500384e-01
2.690103171570500384e-01
2.617500955292319520e-01
2.617500955292319520e-01
2.628964463125716411e-01
2.628964463125716411e-01
2.628964463125716411e-01
2.307986243790599856e-01
2.307986243790599856e-01
2.453190676346962140e-01
2.453190676346962140e-01
2.453190676346962140e-01
2.502865876958349500e-01
2.502865876958349500e-01
2.426442491402369117e-01
2.426442491402369117e-01
2.426442491402369117e-01
2.560183416125334510e-01
2.560183416125334510e-01
2.319449751623997025e-01
2.319449751623997025e-01
2.319449751623997025e-01
2.220099350401222860e-01
2.220099350401222860e-01
2.246847535345815883e-01
2.246847535345815883e-01
2.246847535345815883e-01
2.357661444401986939e-01
2.357661444401986939e-01
2.197172334734428800e-01
2.197172334734428800e-01
2.197172334734428800e-01
2.262132212457011737e-01
2.262132212457011737e-01
2.453190676346962140e-01
2.453190676346962140e-01
2.453190676346962140e-01
2.372946121513183071e-01
2.372946121513183071e-01
2.277416889568207869e-01
2.277416889568207869e-01
2.277416889568207869e-01
2.414978983568972226e-01
2.414978983568972226e-01
2.132212457011845586e-01
2.132212457011845586e-01
2.132212457011845586e-01
2.200993504012227764e-01
2.200993504012227764e-01
2.212457011845624655e-01
2.212457011845624655e-01
2.212457011845624655e-01
2.399694306457776094e-01
2.399694306457776094e-01
2.158960641956438609e-01
2.158960641956438609e-01
2.158960641956438609e-01
2.101643102789453599e-01
2.101643102789453599e-01
2.063431410011463407e-01
2.063431410011463407e-01
2.063431410011463407e-01
2.277416889568207869e-01
2.277416889568207869e-01
2.013756209400076325e-01
2.013756209400076325e-01
2.013756209400076325e-01
1.990829193733282265e-01
1.990829193733282265e-01
2.311807413068398820e-01
2.311807413068398820e-01
2.311807413068398820e-01
2.254489873901413810e-01
2.254489873901413810e-01
1.975544516622086411e-01
1.975544516622086411e-01
1.975544516622086411e-01
2.071073748567061612e-01
2.071073748567061612e-01
2.269774551012609942e-01
2.269774551012609942e-01
2.269774551012609942e-01
2.097821933511654635e-01
2.097821933511654635e-01
2.189529996178830595e-01
2.189529996178830595e-01
2.189529996178830595e-01
2.208635842567825691e-01
2.208635842567825691e-01
2.078716087122659539e-01
2.078716087122659539e-01
2.078716087122659539e-01
2.029040886511272457e-01
2.029040886511272457e-01
1.895299961788307341e-01
1.895299961788307341e-01
1.895299961788307341e-01
1.883836453954910173e-01
1.883836453954910173e-01
1.983186855177684338e-01
1.983186855177684338e-01
1.983186855177684338e-01
1.895299961788307341e-01
1.895299961788307341e-01
2.147497134123041718e-01
2.147497134123041718e-01
2.006113870844478397e-01
2.006113870844478397e-01
2.006113870844478397e-01
1.883836453954910173e-01
1.883836453954910173e-01
1.914405808177302160e-01
1.914405808177302160e-01
1.914405808177302160e-01
1.853267099732518186e-01
1.853267099732518186e-01
1.792128391287733935e-01
1.792128391287733935e-01
1.792128391287733935e-01
2.029040886511272457e-01
2.029040886511272457e-01
1.883836453954910173e-01
1.883836453954910173e-01
1.883836453954910173e-01
1.891478792510508100e-01
1.891478792510508100e-01
1.975544516622086411e-01
1.975544516622086411e-01
1.975544516622086411e-01
1.773022544898739117e-01
1.773022544898739117e-01
1.711883836453954866e-01
1.711883836453954866e-01
1.711883836453954866e-01
1.719526175009552793e-01
1.719526175009552793e-01
1.692777990064959770e-01
1.692777990064959770e-01
1.692777990064959770e-01
1.658387466564768820e-01
1.658387466564768820e-01
2.006113870844478397e-01
2.006113870844478397e-01
2.006113870844478397e-01
1.685135651509361843e-01
1.685135651509361843e-01
1.662208635842567783e-01
1.662208635842567783e-01
1.662208635842567783e-01
1.654566297286969856e-01
1.654566297286969856e-01
1.788307222009934971e-01
1.788307222009934971e-01
1.788307222009934971e-01
1.643102789453572687e-01
1.643102789453572687e-01
1.880015284677111209e-01
1.880015284677111209e-01
1.880015284677111209e-01
1.750095529231945057e-01
1.750095529231945057e-01
1.723347344287352034e-01
1.723347344287352034e-01
1.723347344287352034e-01
1.784486052732136008e-01
1.784486052732136008e-01
1.841803591899121018e-01
1.841803591899121018e-01
1.841803591899121018e-01
1.807413068398930067e-01
1.807413068398930067e-01
1.738632021398547889e-01
1.738632021398547889e-01
1.738632021398547889e-01
1.536110049675200595e-01
1.536110049675200595e-01
1.746274359954146094e-01
1.746274359954146094e-01
1.746274359954146094e-01
1.520825372564004463e-01
1.520825372564004463e-01
1.765380206343140912e-01
1.765380206343140912e-01
1.765380206343140912e-01
1.799770729843332140e-01
1.799770729843332140e-01
1.482613679786014549e-01
1.482613679786014549e-01
1.482613679786014549e-01
1.471150171952617380e-01
1.471150171952617380e-01
1.452044325563622562e-01
1.452044325563622562e-01
1.452044325563622562e-01
1.474971341230416622e-01
1.474971341230416622e-01
1.555215896064195691e-01
1.555215896064195691e-01
1.555215896064195691e-01
1.578142911730989750e-01
1.578142911730989750e-01
1.581964081008788714e-01
1.581964081008788714e-01
1.581964081008788714e-01
1.478792510508215585e-01
1.478792510508215585e-01
1.494077187619411440e-01
1.494077187619411440e-01
1.494077187619411440e-01
1.601069927397783810e-01
1.601069927397783810e-01
1.692777990064959770e-01
1.692777990064959770e-01
1.692777990064959770e-01
1.711883836453954866e-01
1.711883836453954866e-01
1.669850974398165711e-01
1.669850974398165711e-01
1.669850974398165711e-01
1.688956820787160806e-01
1.688956820787160806e-01
1.513183034008406536e-01
1.513183034008406536e-01
1.513183034008406536e-01
1.375620940007642456e-01
1.375620940007642456e-01
1.654566297286969856e-01
1.654566297286969856e-01
1.654566297286969856e-01
1.700420328620557975e-01
1.700420328620557975e-01
1.559037065341994654e-01
1.559037065341994654e-01
1.559037065341994654e-01
1.375620940007642456e-01
1.375620940007642456e-01
1.375620940007642456e-01
1.375620940007642456e-01
1.375620940007642456e-01
1.402369124952235480e-01
1.402369124952235480e-01
1.566679403897592582e-01
1.566679403897592582e-01
1.566679403897592582e-01
1.650745128009170892e-01
1.650745128009170892e-01
1.421474971341230298e-01
1.421474971341230298e-01
1.421474971341230298e-01
1.497898356897210681e-01
1.497898356897210681e-01
1.394726786396637275e-01
1.394726786396637275e-01
1.394726786396637275e-01
1.478792510508215585e-01
1.478792510508215585e-01
1.486434849063813513e-01
1.486434849063813513e-01
1.486434849063813513e-01
1.341230416507451229e-01
1.341230416507451229e-01
1.528467711119602668e-01
1.528467711119602668e-01
1.528467711119602668e-01
1.276270538784868291e-01
1.276270538784868291e-01
1.608712265953381737e-01
1.608712265953381737e-01
1.608712265953381737e-01
1.333588077951853301e-01
1.333588077951853301e-01
1.566679403897592582e-01
1.566679403897592582e-01
1.566679403897592582e-01
1.547573557508597764e-01
1.547573557508597764e-01
1.566679403897592582e-01
1.566679403897592582e-01
1.566679403897592582e-01
1.497898356897210681e-01
1.497898356897210681e-01
1.272449369507069050e-01
1.272449369507069050e-01
1.272449369507069050e-01
1.413832632785632371e-01
1.413832632785632371e-01
1.222774168895682106e-01
1.222774168895682106e-01
1.222774168895682106e-01
1.463507833397019453e-01
1.463507833397019453e-01
1.432938479174627466e-01
1.432938479174627466e-01
1.432938479174627466e-01
1.551394726786396727e-01
1.551394726786396727e-01
1.329766908674054338e-01
1.329766908674054338e-01
1.329766908674054338e-01
1.387084447841039347e-01
1.387084447841039347e-01
1.478792510508215585e-01
1.478792510508215585e-01
1.478792510508215585e-01
1.322124570118456133e-01
1.322124570118456133e-01
1.272449369507069050e-01
1.272449369507069050e-01
1.482613679786014549e-01
1.482613679786014549e-01
1.482613679786014549e-01
1.230416507451280034e-01
1.230416507451280034e-01
1.253343523118074232e-01
1.253343523118074232e-01
1.253343523118074232e-01
1.505540695452808608e-01
1.505540695452808608e-01
1.348872755063049156e-01
1.348872755063049156e-01
1.348872755063049156e-01
1.513183034008406536e-01
1.513183034008406536e-01
1.478792510508215585e-01
1.478792510508215585e-01
1.478792510508215585e-01
1.463507833397019453e-01
1.463507833397019453e-01
1.337409247229652265e-01
1.337409247229652265e-01
1.337409247229652265e-01
1.192204814673289981e-01
1.192204814673289981e-01
1.337409247229652265e-01
1.337409247229652265e-01
1.337409247229652265e-01
1.260985861673672159e-01
1.260985861673672159e-01
1.467329002674818417e-01
1.467329002674818417e-01
1.467329002674818417e-01
1.257164692395873196e-01
1.257164692395873196e-01
1.226595338173481070e-01
1.226595338173481070e-01
1.226595338173481070e-01
1.421474971341230298e-01
1.421474971341230298e-01
1.119602598395108839e-01
1.119602598395108839e-01
1.119602598395108839e-01
1.134887275506304971e-01
1.134887275506304971e-01
1.134887275506304971e-01
1.134887275506304971e-01
1.134887275506304971e-01
1.131066106228505869e-01
1.131066106228505869e-01
1.192204814673289981e-01
1.192204814673289981e-01
1.192204814673289981e-01
1.142529614061902898e-01
1.142529614061902898e-01
1.383263278563240384e-01
1.383263278563240384e-01
1.383263278563240384e-01
1.341230416507451229e-01
1.341230416507451229e-01
1.089033244172716852e-01
1.089033244172716852e-01
1.089033244172716852e-01
1.131066106228505869e-01
1.131066106228505869e-01
1.196025983951089083e-01
1.196025983951089083e-01
1.196025983951089083e-01
