3.106610622850592418e-01
3.106610622850592418e-01
2.999617883072220326e-01
2.999617883072220326e-01
2.999617883072220326e-01
2.942300343905234761e-01
2.942300343905234761e-01
2.896446312571647197e-01
2.896446312571647197e-01
2.896446312571647197e-01
3.079862437905999117e-01
3.079862437905999117e-01
3.068398930072602226e-01
3.068398930072602226e-01
3.068398930072602226e-01
3.121895299961788273e-01
3.121895299961788273e-01
2.980512036683224952e-01
2.980512036683224952e-01
2.980512036683224952e-01
2.693924340848299348e-01
2.693924340848299348e-01
2.995796713794421362e-01
2.995796713794421362e-01
2.995796713794421362e-01
2.953763851738632207e-01
2.953763851738632207e-01
2.980512036683224952e-01
2.980512036683224952e-01
2.980512036683224952e-01
2.949942682460833243e-01
2.949942682460833243e-01
2.911730989682843052e-01
2.911730989682843052e-01
2.575468093236530365e-01
2.575468093236530365e-01
2.575468093236530365e-01
2.862055789071455969e-01
2.862055789071455969e-01
2.552541077569736583e-01
2.552541077569736583e-01
2.552541077569736583e-01
2.602216278181123665e-01
2.602216278181123665e-01
2.487581199847153091e-01
2.487581199847153091e-01
2.487581199847153091e-01
2.464654184180359309e-01
2.464654184180359309e-01
2.495223538402751295e-01
2.495223538402751295e-01
2.495223538402751295e-01
2.743599541459686431e-01
2.743599541459686431e-01
2.628964463125716411e-01
2.628964463125716411e-01
2.628964463125716411e-01
2.655712648070309712e-01
2.655712648070309712e-01
2.380588460068780998e-01
2.380588460068780998e-01
2.380588460068780998e-01
2.518150554069545355e-01
2.518150554069545355e-01
2.598395108903324147e-01
2.598395108903324147e-01
2.598395108903324147e-01
2.411157814291172985e-01
2.411157814291172985e-01
2.579289262514329328e-01
2.579289262514329328e-01
2.579289262514329328e-01
2.457011845624761104e-01
2.457011845624761104e-01
2.307986243790599856e-01
2.307986243790599856e-01
2.307986243790599856e-01
2.640427970959113302e-01
2.640427970959113302e-01
2.628964463125716411e-01
2.628964463125716411e-01
2.628964463125716411e-01
2.399694306457776094e-01
2.399694306457776094e-01
2.392051967902178167e-01
2.392051967902178167e-01
2.392051967902178167e-01
2.300343905235001929e-01
2.300343905235001929e-01
2.510508215513947428e-01
2.510508215513947428e-01
2.510508215513947428e-01
2.265953381734810979e-01
2.265953381734810979e-01
2.307986243790599856e-01
2.307986243790599856e-01
2.307986243790599856e-01
2.537256400458540173e-01
2.537256400458540173e-01
2.220099350401222860e-01
2.220099350401222860e-01
2.220099350401222860e-01
2.239205196790217678e-01
2.239205196790217678e-01
2.472296522735957236e-01
2.472296522735957236e-01
2.472296522735957236e-01
2.483760030569354127e-01
2.483760030569354127e-01
2.239205196790217678e-01
2.239205196790217678e-01
2.239205196790217678e-01
2.185708826901031632e-01
2.185708826901031632e-01
2.380588460068780998e-01
2.380588460068780998e-01
2.380588460068780998e-01
2.086358425678257467e-01
2.086358425678257467e-01
2.048146732900267553e-01
2.048146732900267553e-01
2.048146732900267553e-01
2.132212457011845586e-01
2.132212457011845586e-01
2.365303782957585144e-01
2.365303782957585144e-01
2.365303782957585144e-01
2.292701566679404002e-01
2.292701566679404002e-01
2.166602980512036813e-01
2.166602980512036813e-01
2.166602980512036813e-01
2.013756209400076325e-01
2.013756209400076325e-01
2.051967902178066516e-01
2.051967902178066516e-01
2.051967902178066516e-01
2.189529996178830595e-01
2.189529996178830595e-01
2.151318303400840681e-01
2.151318303400840681e-01
2.151318303400840681e-01
1.975544516622086411e-01
1.975544516622086411e-01
2.021398547955674529e-01
2.021398547955674529e-01
2.021398547955674529e-01
1.987008024455483302e-01
1.987008024455483302e-01
2.017577378677875566e-01
2.017577378677875566e-01
2.017577378677875566e-01
1.914405808177302160e-01
1.914405808177302160e-01
1.864730607565915077e-01
1.864730607565915077e-01
1.864730607565915077e-01
2.151318303400840681e-01
2.151318303400840681e-01
2.124570118456247658e-01
2.124570118456247658e-01
2.124570118456247658e-01
2.113106610622850490e-01
2.113106610622850490e-01
1.906763469621704232e-01
1.906763469621704232e-01
1.906763469621704232e-01
1.792128391287733935e-01
1.792128391287733935e-01
2.059610240733664444e-01
2.059610240733664444e-01
2.059610240733664444e-01
1.715705005731753829e-01
1.715705005731753829e-01
1.799770729843332140e-01
1.799770729843332140e-01
1.799770729843332140e-01
1.765380206343140912e-01
1.765380206343140912e-01
1.688956820787160806e-01
1.688956820787160806e-01
1.688956820787160806e-01
2.029040886511272457e-01
2.029040886511272457e-01
1.837982422621322054e-01
1.837982422621322054e-01
1.837982422621322054e-01
1.876194115399312246e-01
1.876194115399312246e-01
1.914405808177302160e-01
1.914405808177302160e-01
1.914405808177302160e-01
1.700420328620557975e-01
1.700420328620557975e-01
1.822697745510126199e-01
1.822697745510126199e-01
1.822697745510126199e-01
1.608712265953381737e-01
1.608712265953381737e-01
1.593427588842185605e-01
1.593427588842185605e-01
1.593427588842185605e-01
1.853267099732518186e-01
1.853267099732518186e-01
1.849445930454719222e-01
1.849445930454719222e-01
1.849445930454719222e-01
1.673672143675964952e-01
1.673672143675964952e-01
1.696599159342759011e-01
1.696599159342759011e-01
1.696599159342759011e-01
1.811234237676729031e-01
1.811234237676729031e-01
1.459686664119220489e-01
1.459686664119220489e-01
1.459686664119220489e-01
1.688956820787160806e-01
1.688956820787160806e-01
1.444401987008024357e-01
1.444401987008024357e-01
1.444401987008024357e-01
1.704241497898356938e-01
1.704241497898356938e-01
1.688956820787160806e-01
1.688956820787160806e-01
1.688956820787160806e-01
1.352693924340848397e-01
1.352693924340848397e-01
1.708062667176155902e-01
1.708062667176155902e-01
1.708062667176155902e-01
1.505540695452808608e-01
1.505540695452808608e-01
1.681314482231562879e-01
1.681314482231562879e-01
1.318303400840657169e-01
1.318303400840657169e-01
1.318303400840657169e-01
1.367978601452044252e-01
1.367978601452044252e-01
1.650745128009170892e-01
1.650745128009170892e-01
1.650745128009170892e-01
1.310661062285059242e-01
1.310661062285059242e-01
1.303018723729461315e-01
1.303018723729461315e-01
1.303018723729461315e-01
1.360336262896446324e-01
1.360336262896446324e-01
1.570500573175391545e-01
1.570500573175391545e-01
1.570500573175391545e-01
1.283912877340466219e-01
1.283912877340466219e-01
1.505540695452808608e-01
1.505540695452808608e-01
1.505540695452808608e-01
1.486434849063813513e-01
1.486434849063813513e-01
1.413832632785632371e-01
1.413832632785632371e-01
1.413832632785632371e-01
1.272449369507069050e-01
1.272449369507069050e-01
1.486434849063813513e-01
1.486434849063813513e-01
1.486434849063813513e-01
1.153993121895299928e-01
1.153993121895299928e-01
1.436759648452426430e-01
1.436759648452426430e-01
1.436759648452426430e-01
1.410011463507833407e-01
1.410011463507833407e-01
1.333588077951853301e-01
1.333588077951853301e-01
1.333588077951853301e-01
1.123423767672907941e-01
1.123423767672907941e-01
1.421474971341230298e-01
1.421474971341230298e-01
1.421474971341230298e-01
1.146350783339702001e-01
1.146350783339702001e-01
1.322124570118456133e-01
1.322124570118456133e-01
1.322124570118456133e-01
1.367978601452044252e-01
1.367978601452044252e-01
1.383263278563240384e-01
1.383263278563240384e-01
1.383263278563240384e-01
1.375620940007642456e-01
1.375620940007642456e-01
1.253343523118074232e-01
1.253343523118074232e-01
1.253343523118074232e-01
1.364157432174245288e-01
1.364157432174245288e-01
1.303018723729461315e-01
1.303018723729461315e-01
1.303018723729461315e-01
1.054642720672525763e-01
1.054642720672525763e-01
1.050821551394726799e-01
1.050821551394726799e-01
1.050821551394726799e-01
1.387084447841039347e-01
1.387084447841039347e-01
1.356515093618647361e-01
1.356515093618647361e-01
1.356515093618647361e-01
1.047000382116927836e-01
1.047000382116927836e-01
1.310661062285059242e-01
1.310661062285059242e-01
1.310661062285059242e-01
1.283912877340466219e-01
1.283912877340466219e-01
1.318303400840657169e-01
1.318303400840657169e-01
1.318303400840657169e-01
1.108139090561711948e-01
1.108139090561711948e-01
1.222774168895682106e-01
1.222774168895682106e-01
1.222774168895682106e-01
1.165456629728696958e-01
1.165456629728696958e-01
1.360336262896446324e-01
1.360336262896446324e-01
1.360336262896446324e-01
1.115781429117309875e-01
1.115781429117309875e-01
1.276270538784868291e-01
1.276270538784868291e-01
1.276270538784868291e-01
1.329766908674054338e-01
1.329766908674054338e-01
1.077569736339319822e-01
1.077569736339319822e-01
1.077569736339319822e-01
1.012609858616736747e-01
1.012609858616736747e-01
1.196025983951089083e-01
1.196025983951089083e-01
1.196025983951089083e-01
1.111960259839510912e-01
1.111960259839510912e-01
9.820405043943446211e-02
9.820405043943446211e-02
9.820405043943446211e-02
1.203668322506687011e-01
1.203668322506687011e-01
1.310661062285059242e-01
1.310661062285059242e-01
1.310661062285059242e-01
9.667558272831486277e-02
9.667558272831486277e-02
9.820405043943446211e-02
9.820405043943446211e-02
9.820405043943446211e-02
1.081390905617118786e-01
1.081390905617118786e-01
1.222774168895682106e-01
1.222774168895682106e-01
1.222774168895682106e-01
9.514711501719526343e-02
9.514711501719526343e-02
9.935040122277416508e-02
9.935040122277416508e-02
9.935040122277416508e-02
9.743981658387466938e-02
9.743981658387466938e-02
1.161635460450897994e-01
1.161635460450897994e-01
1.161635460450897994e-01
1.165456629728696958e-01
1.165456629728696958e-01
9.247229652273596112e-02
9.247229652273596112e-02
9.247229652273596112e-02
1.035536874283530806e-01
1.035536874283530806e-01
9.705769965609475913e-02
9.705769965609475913e-02
9.705769965609475913e-02
1.027894535727932740e-01
1.027894535727932740e-01
9.476499808941536707e-02
9.476499808941536707e-02
9.476499808941536707e-02
8.941536110049674857e-02
8.941536110049674857e-02
1.215131830340084040e-01
1.215131830340084040e-01
1.215131830340084040e-01
9.400076423385556046e-02
9.400076423385556046e-02
1.092854413450515816e-01
1.092854413450515816e-01
1.092854413450515816e-01
9.017959495605655518e-02
9.017959495605655518e-02
9.476499808941536707e-02
9.476499808941536707e-02
9.476499808941536707e-02
1.173098968284295024e-01
1.173098968284295024e-01
8.406572411157814395e-02
8.406572411157814395e-02
8.406572411157814395e-02
1.131066106228505869e-01
1.131066106228505869e-01
9.094382881161634791e-02
9.094382881161634791e-02
9.094382881161634791e-02
8.139090561711884164e-02
8.139090561711884164e-02
1.134887275506304971e-01
1.134887275506304971e-01
1.134887275506304971e-01
8.635842567825754990e-02
8.635842567825754990e-02
9.170806266717615451e-02
9.170806266717615451e-02
9.170806266717615451e-02
8.559419182269774329e-02
8.559419182269774329e-02
1.150171952617500964e-01
1.150171952617500964e-01
1.150171952617500964e-01
1.081390905617118786e-01
1.081390905617118786e-01
9.170806266717615451e-02
9.170806266717615451e-02
1.050821551394726799e-01
1.050821551394726799e-01
1.050821551394726799e-01
1.157814291173099031e-01
1.157814291173099031e-01
1.016431027894535710e-01
1.016431027894535710e-01
1.016431027894535710e-01
8.750477646159725287e-02
8.750477646159725287e-02
9.896828429499426871e-02
9.896828429499426871e-02
9.896828429499426871e-02
1.157814291173099031e-01
1.157814291173099031e-01
1.192204814673289981e-01
1.192204814673289981e-01
1.192204814673289981e-01
1.169277799006495921e-01
1.169277799006495921e-01
1.096675582728314918e-01
1.096675582728314918e-01
1.096675582728314918e-01
9.935040122277416508e-02
9.935040122277416508e-02
1.004967520061138680e-01
1.004967520061138680e-01
1.004967520061138680e-01
1.024073366450133776e-01
1.024073366450133776e-01
1.410011463507833407e-01
1.410011463507833407e-01
1.410011463507833407e-01
1.467329002674818417e-01
1.467329002674818417e-01
1.517004203286205499e-01
1.517004203286205499e-01
1.517004203286205499e-01
1.547573557508597764e-01
1.547573557508597764e-01
1.364157432174245288e-01
1.364157432174245288e-01
1.364157432174245288e-01
1.429117309896828503e-01
1.429117309896828503e-01
1.429117309896828503e-01
1.429117309896828503e-01
1.429117309896828503e-01
1.654566297286969856e-01
1.654566297286969856e-01
2.055789071455865480e-01
2.055789071455865480e-01
2.055789071455865480e-01
2.006113870844478397e-01
2.006113870844478397e-01
2.170424149789835777e-01
2.170424149789835777e-01
2.170424149789835777e-01
2.388230798624378926e-01
2.388230798624378926e-01
2.327092090179594952e-01
2.327092090179594952e-01
2.327092090179594952e-01
2.434084829957967044e-01
2.434084829957967044e-01
2.407336645013374021e-01
2.407336645013374021e-01
2.407336645013374021e-01
2.464654184180359309e-01
2.464654184180359309e-01
2.663354986625907639e-01
2.663354986625907639e-01
2.663354986625907639e-01
2.724493695070691612e-01
2.724493695070691612e-01
3.102789453572793454e-01
3.102789453572793454e-01
3.102789453572793454e-01
2.884982804738249751e-01
2.884982804738249751e-01
2.999617883072220326e-01
2.999617883072220326e-01
2.999617883072220326e-01
3.408482995796713877e-01
3.408482995796713877e-01
3.221245701184562438e-01
3.221245701184562438e-01
3.221245701184562438e-01
3.301490256018341785e-01
3.301490256018341785e-01
3.442873519296905105e-01
3.442873519296905105e-01
3.442873519296905105e-01
3.607183798242262207e-01
3.607183798242262207e-01
3.565150936186473052e-01
3.565150936186473052e-01
3.565150936186473052e-01
3.763851738632021382e-01
3.763851738632021382e-01
3.851738632021398656e-01
3.851738632021398656e-01
3.851738632021398656e-01
3.802063431410011574e-01
3.802063431410011574e-01
3.679786014520443072e-01
3.679786014520443072e-01
3.679786014520443072e-01
3.824990447076805355e-01
3.824990447076805355e-01
4.008406572411157831e-01
4.008406572411157831e-01
4.008406572411157831e-01
3.912877340466182630e-01
3.912877340466182630e-01
3.905235001910584702e-01
3.905235001910584702e-01
3.905235001910584702e-01
3.863202139854795547e-01
3.863202139854795547e-01
3.985479556744364049e-01
3.985479556744364049e-01
3.985479556744364049e-01
4.275888421857088062e-01
4.275888421857088062e-01
4.264424914023691171e-01
4.264424914023691171e-01
4.264424914023691171e-01
3.951089033244172821e-01
3.951089033244172821e-01
4.161253343523118042e-01
4.161253343523118042e-01
4.161253343523118042e-01
4.046618265189148023e-01
4.046618265189148023e-01
4.214749713412304089e-01
4.214749713412304089e-01
4.214749713412304089e-01
4.023691249522353686e-01
4.023691249522353686e-01
4.352311807413068445e-01
4.352311807413068445e-01
4.352311807413068445e-01
4.054260603744745950e-01
4.054260603744745950e-01
4.088651127244937178e-01
4.088651127244937178e-01
4.088651127244937178e-01
4.352311807413068445e-01
4.352311807413068445e-01
4.325563622468475145e-01
4.325563622468475145e-01
4.325563622468475145e-01
4.317921283912877217e-01
4.317921283912877217e-01
4.058081773022544914e-01
4.058081773022544914e-01
4.058081773022544914e-01
4.191822697745510307e-01
4.191822697745510307e-01
4.107756973633931996e-01
4.107756973633931996e-01
4.107756973633931996e-01
4.371417653802063263e-01
4.371417653802063263e-01
4.352311807413068445e-01
4.352311807413068445e-01
4.352311807413068445e-01
4.058081773022544914e-01
4.058081773022544914e-01
4.359954145968666372e-01
4.359954145968666372e-01
4.359954145968666372e-01
4.035154757355751132e-01
4.035154757355751132e-01
4.111578142911730960e-01
4.111578142911730960e-01
4.111578142911730960e-01
4.394344669468857600e-01
4.394344669468857600e-01
4.306457776079480326e-01
4.306457776079480326e-01
4.306457776079480326e-01
4.058081773022544914e-01
4.058081773022544914e-01
4.031333588077951613e-01
4.031333588077951613e-01
4.031333588077951613e-01
4.042797095911349059e-01
4.042797095911349059e-01
4.157432174245319079e-01
4.157432174245319079e-01
4.157432174245319079e-01
4.306457776079480326e-01
4.306457776079480326e-01
4.115399312189529923e-01
4.115399312189529923e-01
4.115399312189529923e-01
4.291173098968284472e-01
4.291173098968284472e-01
4.058081773022544914e-01
4.058081773022544914e-01
4.058081773022544914e-01
3.974016048910966603e-01
3.974016048910966603e-01
3.989300726022163013e-01
3.989300726022163013e-01
4.038975926633550095e-01
4.038975926633550095e-01
4.038975926633550095e-01
4.291173098968284472e-01
4.291173098968284472e-01
4.103935804356133032e-01
4.103935804356133032e-01
4.103935804356133032e-01
4.287351929690485508e-01
4.287351929690485508e-01
3.985479556744364049e-01
3.985479556744364049e-01
3.985479556744364049e-01
4.260603744745892207e-01
4.260603744745892207e-01
3.931983186855177448e-01
3.931983186855177448e-01
3.931983186855177448e-01
3.985479556744364049e-01
3.985479556744364049e-01
3.939625525410775930e-01
3.939625525410775930e-01
3.939625525410775930e-01
3.981658387466564530e-01
3.981658387466564530e-01
4.195643867023309270e-01
4.195643867023309270e-01
4.195643867023309270e-01
3.794421092854413646e-01
3.794421092854413646e-01
3.855559801299197620e-01
3.855559801299197620e-01
3.855559801299197620e-01
4.008406572411157831e-01
4.008406572411157831e-01
3.847917462743599692e-01
3.847917462743599692e-01
3.847917462743599692e-01
4.054260603744745950e-01
4.054260603744745950e-01
4.031333588077951613e-01
4.031333588077951613e-01
4.031333588077951613e-01
3.725640045854031190e-01
3.725640045854031190e-01
3.851738632021398656e-01
3.851738632021398656e-01
3.851738632021398656e-01
3.664501337409247217e-01
3.664501337409247217e-01
3.771494077187619309e-01
3.771494077187619309e-01
3.771494077187619309e-01
3.821169277799006392e-01
3.821169277799006392e-01
3.519296904852884933e-01
3.519296904852884933e-01
3.519296904852884933e-01
3.779136415743217237e-01
3.779136415743217237e-01
3.763851738632021382e-01
3.763851738632021382e-01
3.763851738632021382e-01
3.733282384409629118e-01
3.733282384409629118e-01
3.408482995796713877e-01
3.408482995796713877e-01
3.408482995796713877e-01
3.626289644631257025e-01
3.626289644631257025e-01
3.377913641574321613e-01
3.377913641574321613e-01
3.377913641574321613e-01
3.580435613297668906e-01
3.580435613297668906e-01
3.408482995796713877e-01
3.408482995796713877e-01
3.408482995796713877e-01
3.137179977072984127e-01
3.137179977072984127e-01
3.098968284294994491e-01
3.098968284294994491e-01
3.098968284294994491e-01
3.022544898739014108e-01
3.022544898739014108e-01
3.351165456629728867e-01
3.351165456629728867e-01
3.351165456629728867e-01
2.991975544516621843e-01
2.991975544516621843e-01
2.980512036683224952e-01
2.980512036683224952e-01
2.980512036683224952e-01
2.969048528849828061e-01
2.969048528849828061e-01
3.091325945739396008e-01
3.091325945739396008e-01
3.091325945739396008e-01
3.091325945739396008e-01
3.091325945739396008e-01
3.137179977072984127e-01
3.137179977072984127e-01
3.137179977072984127e-01
2.881161635460450787e-01
2.881161635460450787e-01
3.079862437905999117e-01
3.079862437905999117e-01
3.079862437905999117e-01
2.884982804738249751e-01
2.884982804738249751e-01
2.770347726404279731e-01
2.770347726404279731e-01
2.770347726404279731e-01
2.999617883072220326e-01
2.999617883072220326e-01
2.705387848681696794e-01
2.705387848681696794e-01
2.705387848681696794e-01
2.892625143293847678e-01
2.892625143293847678e-01
2.927015666794038906e-01
2.927015666794038906e-01
2.927015666794038906e-01
2.537256400458540173e-01
2.537256400458540173e-01
2.842949942682460596e-01
2.842949942682460596e-01
2.842949942682460596e-01
2.777990064959877659e-01
2.777990064959877659e-01
2.518150554069545355e-01
2.518150554069545355e-01
2.518150554069545355e-01
2.827665265571264741e-01
2.827665265571264741e-01
2.812380588460068886e-01
2.812380588460068886e-01
2.812380588460068886e-01
2.479938861291555163e-01
2.479938861291555163e-01
2.491402369124952332e-01
2.491402369124952332e-01
2.491402369124952332e-01
2.502865876958349500e-01
2.502865876958349500e-01
2.468475353458158272e-01
2.468475353458158272e-01
2.468475353458158272e-01
2.388230798624378926e-01
2.388230798624378926e-01
2.762705387848681804e-01
2.762705387848681804e-01
2.762705387848681804e-01
2.395873137179977130e-01
2.395873137179977130e-01
2.483760030569354127e-01
2.483760030569354127e-01
2.483760030569354127e-01
2.682460833014902457e-01
2.682460833014902457e-01
2.506687046236148464e-01
2.506687046236148464e-01
2.506687046236148464e-01
2.541077569736339137e-01
2.541077569736339137e-01
2.338555598012991843e-01
2.338555598012991843e-01
2.338555598012991843e-01
2.350019105846389011e-01
2.350019105846389011e-01
2.430263660680168081e-01
2.430263660680168081e-01
2.430263660680168081e-01
2.533435231180741209e-01
2.533435231180741209e-01
2.564004585403133474e-01
2.564004585403133474e-01
2.564004585403133474e-01
2.357661444401986939e-01
2.357661444401986939e-01
2.560183416125334510e-01
2.560183416125334510e-01
2.560183416125334510e-01
2.307986243790599856e-01
2.307986243790599856e-01
2.346197936568590048e-01
2.346197936568590048e-01
2.346197936568590048e-01
2.434084829957967044e-01
2.434084829957967044e-01
2.357661444401986939e-01
2.357661444401986939e-01
2.357661444401986939e-01
2.227741688956820787e-01
2.227741688956820787e-01
2.392051967902178167e-01
2.392051967902178167e-01
2.392051967902178167e-01
2.449369507069163177e-01
2.449369507069163177e-01
2.120748949178448695e-01
2.120748949178448695e-01
2.376767290790982035e-01
2.376767290790982035e-01
2.376767290790982035e-01
2.388230798624378926e-01
2.388230798624378926e-01
2.407336645013374021e-01
2.407336645013374021e-01
2.407336645013374021e-01
2.269774551012609942e-01
2.269774551012609942e-01
2.071073748567061612e-01
2.071073748567061612e-01
2.071073748567061612e-01
2.025219717233473493e-01
2.025219717233473493e-01
2.109285441345051526e-01
2.109285441345051526e-01
2.109285441345051526e-01
2.009935040122277361e-01
2.009935040122277361e-01
2.132212457011845586e-01
2.132212457011845586e-01
2.132212457011845586e-01
2.181887657623232668e-01
2.181887657623232668e-01
2.204814673290026728e-01
2.204814673290026728e-01
2.204814673290026728e-01
2.254489873901413810e-01
2.254489873901413810e-01
1.990829193733282265e-01
1.990829193733282265e-01
1.990829193733282265e-01
2.017577378677875566e-01
2.017577378677875566e-01
2.082537256400458503e-01
2.082537256400458503e-01
2.082537256400458503e-01
1.857088269010317150e-01
1.857088269010317150e-01
1.853267099732518186e-01
1.853267099732518186e-01
1.853267099732518186e-01
1.975544516622086411e-01
1.975544516622086411e-01
2.155139472678639645e-01
2.155139472678639645e-01
2.155139472678639645e-01
1.952617500955292351e-01
1.952617500955292351e-01
1.799770729843332140e-01
1.799770729843332140e-01
1.799770729843332140e-01
1.792128391287733935e-01
1.792128391287733935e-01
1.891478792510508100e-01
1.891478792510508100e-01
1.891478792510508100e-01
1.742453190676346853e-01
1.742453190676346853e-01
1.899121131066106305e-01
1.899121131066106305e-01
1.899121131066106305e-01
1.658387466564768820e-01
1.658387466564768820e-01
1.880015284677111209e-01
1.880015284677111209e-01
1.880015284677111209e-01
1.944975162399694424e-01
1.944975162399694424e-01
1.692777990064959770e-01
1.692777990064959770e-01
1.692777990064959770e-01
1.914405808177302160e-01
1.914405808177302160e-01
1.834161253343523090e-01
1.834161253343523090e-01
1.834161253343523090e-01
1.570500573175391545e-01
1.570500573175391545e-01
1.822697745510126199e-01
1.822697745510126199e-01
1.822697745510126199e-01
1.593427588842185605e-01
1.593427588842185605e-01
1.566679403897592582e-01
1.566679403897592582e-01
1.566679403897592582e-01
1.593427588842185605e-01
1.593427588842185605e-01
1.792128391287733935e-01
1.792128391287733935e-01
1.792128391287733935e-01
1.520825372564004463e-01
1.520825372564004463e-01
1.704241497898356938e-01
1.704241497898356938e-01
1.704241497898356938e-01
1.669850974398165711e-01
1.669850974398165711e-01
1.746274359954146094e-01
1.746274359954146094e-01
1.746274359954146094e-01
1.627818112342376833e-01
1.627818112342376833e-01
1.463507833397019453e-01
1.463507833397019453e-01
1.463507833397019453e-01
1.413832632785632371e-01
1.413832632785632371e-01
1.467329002674818417e-01
1.467329002674818417e-01
1.467329002674818417e-01
1.394726786396637275e-01
1.394726786396637275e-01
1.379442109285441420e-01
1.379442109285441420e-01
1.379442109285441420e-01
1.486434849063813513e-01
1.486434849063813513e-01
1.623996943064577869e-01
1.623996943064577869e-01
1.623996943064577869e-01
1.635460450897974760e-01
1.635460450897974760e-01
1.509361864730607572e-01
1.509361864730607572e-01
1.509361864730607572e-01
1.524646541841803704e-01
1.524646541841803704e-01
1.291555215896064146e-01
1.291555215896064146e-01
1.291555215896064146e-01
1.268628200229270087e-01
1.268628200229270087e-01
1.222774168895682106e-01
1.222774168895682106e-01
1.222774168895682106e-01
1.238058846006878100e-01
1.238058846006878100e-01
1.341230416507451229e-01
1.341230416507451229e-01
1.341230416507451229e-01
1.517004203286205499e-01
1.517004203286205499e-01
1.467329002674818417e-01
1.467329002674818417e-01
1.467329002674818417e-01
1.207489491784486113e-01
1.207489491784486113e-01
1.394726786396637275e-01
1.394726786396637275e-01
1.394726786396637275e-01
1.379442109285441420e-01
1.379442109285441420e-01
1.482613679786014549e-01
1.482613679786014549e-01
1.482613679786014549e-01
1.303018723729461315e-01
1.303018723729461315e-01
1.482613679786014549e-01
1.482613679786014549e-01
1.482613679786014549e-01
1.448223156285823598e-01
1.448223156285823598e-01
1.276270538784868291e-01
1.276270538784868291e-01
1.276270538784868291e-01
1.371799770729843215e-01
1.371799770729843215e-01
1.394726786396637275e-01
1.394726786396637275e-01
1.394726786396637275e-01
1.474971341230416622e-01
1.474971341230416622e-01
1.299197554451662073e-01
1.299197554451662073e-01
1.299197554451662073e-01
1.448223156285823598e-01
1.448223156285823598e-01
1.318303400840657169e-01
1.318303400840657169e-01
1.318303400840657169e-01
1.455865494841421526e-01
1.455865494841421526e-01
1.425296140619029539e-01
1.425296140619029539e-01
1.425296140619029539e-01
1.176920137562093988e-01
1.176920137562093988e-01
1.234237676729079136e-01
1.234237676729079136e-01
1.234237676729079136e-01
1.085212074894917889e-01
1.085212074894917889e-01
1.157814291173099031e-01
1.157814291173099031e-01
1.157814291173099031e-01
1.222774168895682106e-01
1.222774168895682106e-01
1.073748567061520859e-01
1.073748567061520859e-01
1.073748567061520859e-01
1.054642720672525763e-01
1.054642720672525763e-01
1.390905617118838311e-01
1.390905617118838311e-01
1.119602598395108839e-01
1.119602598395108839e-01
1.119602598395108839e-01
1.123423767672907941e-01
1.123423767672907941e-01
1.371799770729843215e-01
1.371799770729843215e-01
1.371799770729843215e-01
1.299197554451662073e-01
1.299197554451662073e-01
1.413832632785632371e-01
1.413832632785632371e-01
1.413832632785632371e-01
1.073748567061520859e-01
1.073748567061520859e-01
1.066106228505922793e-01
1.066106228505922793e-01
1.066106228505922793e-01
1.127244936950706905e-01
1.127244936950706905e-01
1.115781429117309875e-01
1.115781429117309875e-01
1.115781429117309875e-01
1.043179212839128733e-01
1.043179212839128733e-01
1.348872755063049156e-01
1.348872755063049156e-01
1.348872755063049156e-01
1.394726786396637275e-01
1.394726786396637275e-01
1.039358043561329770e-01
1.039358043561329770e-01
1.039358043561329770e-01
1.360336262896446324e-01
1.360336262896446324e-01
1.310661062285059242e-01
1.310661062285059242e-01
1.310661062285059242e-01
1.012609858616736747e-01
1.012609858616736747e-01
1.127244936950706905e-01
1.127244936950706905e-01
1.127244936950706905e-01
1.024073366450133776e-01
1.024073366450133776e-01
1.050821551394726799e-01
1.050821551394726799e-01
1.050821551394726799e-01
1.356515093618647361e-01
1.356515093618647361e-01
1.062285059228123829e-01
1.062285059228123829e-01
1.062285059228123829e-01
9.667558272831486277e-02
9.667558272831486277e-02
1.337409247229652265e-01
1.337409247229652265e-01
1.337409247229652265e-01
1.322124570118456133e-01
1.322124570118456133e-01
1.001146350783339717e-01
1.001146350783339717e-01
1.001146350783339717e-01
1.066106228505922793e-01
1.066106228505922793e-01
1.146350783339702001e-01
1.146350783339702001e-01
1.146350783339702001e-01
1.176920137562093988e-01
1.176920137562093988e-01
1.306839893007260278e-01
1.306839893007260278e-01
1.306839893007260278e-01
9.935040122277416508e-02
9.935040122277416508e-02
1.303018723729461315e-01
1.303018723729461315e-01
1.303018723729461315e-01
1.226595338173481070e-01
1.226595338173481070e-01
1.314482231562858205e-01
1.314482231562858205e-01
1.314482231562858205e-01
1.050821551394726799e-01
1.050821551394726799e-01
9.973251815055407532e-02
9.973251815055407532e-02
9.973251815055407532e-02
1.276270538784868291e-01
1.276270538784868291e-01
9.973251815055407532e-02
9.973251815055407532e-02
9.973251815055407532e-02
9.400076423385556046e-02
9.400076423385556046e-02
9.438288116163545682e-02
9.438288116163545682e-02
9.438288116163545682e-02
9.170806266717615451e-02
9.170806266717615451e-02
1.104317921283912846e-01
1.104317921283912846e-01
1.104317921283912846e-01
9.056171188383645154e-02
9.056171188383645154e-02
1.020252197172334674e-01
1.020252197172334674e-01
1.020252197172334674e-01
1.150171952617500964e-01
1.150171952617500964e-01
9.858616736721437235e-02
9.858616736721437235e-02
9.858616736721437235e-02
1.249522353840275130e-01
1.249522353840275130e-01
1.157814291173099031e-01
1.157814291173099031e-01
1.157814291173099031e-01
9.552923194497515980e-02
9.552923194497515980e-02
1.211310661062285077e-01
1.211310661062285077e-01
1.211310661062285077e-01
9.361864730607566409e-02
9.361864730607566409e-02
1.211310661062285077e-01
1.211310661062285077e-01
1.211310661062285077e-01
9.017959495605655518e-02
9.017959495605655518e-02
9.629346580053496640e-02
9.629346580053496640e-02
9.629346580053496640e-02
1.027894535727932740e-01
1.027894535727932740e-01
1.245701184562476166e-01
1.245701184562476166e-01
1.245701184562476166e-01
1.134887275506304971e-01
1.134887275506304971e-01
9.552923194497515980e-02
9.552923194497515980e-02
9.552923194497515980e-02
1.012609858616736747e-01
1.012609858616736747e-01
1.089033244172716852e-01
1.089033244172716852e-01
1.089033244172716852e-01
1.111960259839510912e-01
1.111960259839510912e-01
1.165456629728696958e-01
1.165456629728696958e-01
1.165456629728696958e-01
1.291555215896064146e-01
1.291555215896064146e-01
1.230416507451280034e-01
1.230416507451280034e-01
1.230416507451280034e-01
1.543752388230798522e-01
1.543752388230798522e-01
1.696599159342759011e-01
1.696599159342759011e-01
1.696599159342759011e-01
1.406190294230034443e-01
1.406190294230034443e-01
1.780664883454337044e-01
1.780664883454337044e-01
1.780664883454337044e-01
1.811234237676729031e-01
1.811234237676729031e-01
1.841803591899121018e-01
1.841803591899121018e-01
1.841803591899121018e-01
1.795949560565533176e-01
1.795949560565533176e-01
2.009935040122277361e-01
2.009935040122277361e-01
2.009935040122277361e-01
2.262132212457011737e-01
2.262132212457011737e-01
2.307986243790599856e-01
2.307986243790599856e-01
2.307986243790599856e-01
2.464654184180359309e-01
2.464654184180359309e-01
2.537256400458540173e-01
2.537256400458540173e-01
2.537256400458540173e-01
2.541077569736339137e-01
2.541077569736339137e-01
2.495223538402751295e-01
2.495223538402751295e-01
2.495223538402751295e-01
2.564004585403133474e-01
2.564004585403133474e-01
3.007260221627818253e-01
3.007260221627818253e-01
3.007260221627818253e-01
3.007260221627818253e-01
3.007260221627818253e-01
2.907909820405044088e-01
2.907909820405044088e-01
3.205961024073366583e-01
3.205961024073366583e-01
3.205961024073366583e-01
3.087504776461597045e-01
3.087504776461597045e-01
3.202139854795567619e-01
3.202139854795567619e-01
3.202139854795567619e-01
3.416125334352311804e-01
3.416125334352311804e-01
3.377913641574321613e-01
3.377913641574321613e-01
3.377913641574321613e-01
3.748567061520825527e-01
3.748567061520825527e-01
3.469621704241497850e-01
3.469621704241497850e-01
3.469621704241497850e-01
3.756209400076423455e-01
3.756209400076423455e-01
3.912877340466182630e-01
3.912877340466182630e-01
3.912877340466182630e-01
3.695070691631639481e-01
3.695070691631639481e-01
3.909056171188383666e-01
3.909056171188383666e-01
3.909056171188383666e-01
3.813526939243408465e-01
3.813526939243408465e-01
4.103935804356133032e-01
4.103935804356133032e-01
4.103935804356133032e-01
3.954910202521971785e-01
3.954910202521971785e-01
3.893771494077187811e-01
3.893771494077187811e-01
3.893771494077187811e-01
3.981658387466564530e-01
3.981658387466564530e-01
3.993121895299961976e-01
3.993121895299961976e-01
3.993121895299961976e-01
3.962552541077569712e-01
3.962552541077569712e-01
4.394344669468857600e-01
4.394344669468857600e-01
4.394344669468857600e-01
4.084829957967138214e-01
4.084829957967138214e-01
4.325563622468475145e-01
4.325563622468475145e-01
4.325563622468475145e-01
4.149789835689721151e-01
4.149789835689721151e-01
4.275888421857088062e-01
4.275888421857088062e-01
4.275888421857088062e-01
4.207107374856706161e-01
4.207107374856706161e-01
4.451662208635842610e-01
4.451662208635842610e-01
4.451662208635842610e-01
4.153611004967520115e-01
4.153611004967520115e-01
4.165074512800917006e-01
4.165074512800917006e-01
4.165074512800917006e-01
4.531906763469621957e-01
4.531906763469621957e-01
4.329384791746274108e-01
4.329384791746274108e-01
4.329384791746274108e-01
4.543370271303018848e-01
4.543370271303018848e-01
4.543370271303018848e-01
4.543370271303018848e-01
4.543370271303018848e-01
4.233855559801299462e-01
4.233855559801299462e-01
4.260603744745892207e-01
4.260603744745892207e-01
4.260603744745892207e-01
4.210928544134505125e-01
4.210928544134505125e-01
4.585403133358808003e-01
4.585403133358808003e-01
4.585403133358808003e-01
4.512800917080626584e-01
4.512800917080626584e-01
4.531906763469621957e-01
4.531906763469621957e-01
4.531906763469621957e-01
4.543370271303018848e-01
4.543370271303018848e-01
4.401987008024455528e-01
4.401987008024455528e-01
4.401987008024455528e-01
4.554833779136415739e-01
4.554833779136415739e-01
4.352311807413068445e-01
4.352311807413068445e-01
4.352311807413068445e-01
4.329384791746274108e-01
4.329384791746274108e-01
4.356132976690867409e-01
4.356132976690867409e-01
4.356132976690867409e-01
4.463125716469239501e-01
4.463125716469239501e-01
4.306457776079480326e-01
4.306457776079480326e-01
4.306457776079480326e-01
4.325563622468475145e-01
4.325563622468475145e-01
4.168895682078715970e-01
4.168895682078715970e-01
4.168895682078715970e-01
4.524264424914023475e-01
4.524264424914023475e-01
4.272067252579289098e-01
4.272067252579289098e-01
4.272067252579289098e-01
4.283530760412686544e-01
4.283530760412686544e-01
4.252961406190294280e-01
4.252961406190294280e-01
4.252961406190294280e-01
4.176538020634313897e-01
4.176538020634313897e-01
4.405808177302254491e-01
4.405808177302254491e-01
4.405808177302254491e-01
4.092472296522736142e-01
4.092472296522736142e-01
4.272067252579289098e-01
4.272067252579289098e-01
4.272067252579289098e-01
4.390523500191058637e-01
4.390523500191058637e-01
4.054260603744745950e-01
4.054260603744745950e-01
4.054260603744745950e-01
4.314100114635078254e-01
4.314100114635078254e-01
3.977837218188765567e-01
3.977837218188765567e-01
3.977837218188765567e-01
3.977837218188765567e-01
3.977837218188765567e-01
4.165074512800917006e-01
4.165074512800917006e-01
4.165074512800917006e-01
4.126862820022926814e-01
4.126862820022926814e-01
4.256782575468093244e-01
4.256782575468093244e-01
4.256782575468093244e-01
3.989300726022163013e-01
3.989300726022163013e-01
3.935804356132976967e-01
3.935804356132976967e-01
3.935804356132976967e-01
4.172716851356514933e-01
4.172716851356514933e-01
4.096293465800535105e-01
4.096293465800535105e-01
4.096293465800535105e-01
4.000764233855559904e-01
4.000764233855559904e-01
4.054260603744745950e-01
4.054260603744745950e-01
4.054260603744745950e-01
3.974016048910966603e-01
3.974016048910966603e-01
3.981658387466564530e-01
3.981658387466564530e-01
3.981658387466564530e-01
3.740924722965227600e-01
3.740924722965227600e-01
3.565150936186473052e-01
3.565150936186473052e-01
3.565150936186473052e-01
3.568972105464272015e-01
3.568972105464272015e-01
3.656858998853649290e-01
3.656858998853649290e-01
3.656858998853649290e-01
3.568972105464272015e-01
3.568972105464272015e-01
3.561329766908674088e-01
3.561329766908674088e-01
3.561329766908674088e-01
3.649216660298051362e-01
3.649216660298051362e-01
3.622468475353458062e-01
3.622468475353458062e-01
3.622468475353458062e-01
3.270920901795949520e-01
3.270920901795949520e-01
3.553687428353076161e-01
3.553687428353076161e-01
3.194497516239969692e-01
3.194497516239969692e-01
3.194497516239969692e-01
3.190676346962170173e-01
3.190676346962170173e-01
3.129537638517386200e-01
3.129537638517386200e-01
3.129537638517386200e-01
3.412304165074512841e-01
3.412304165074512841e-01
3.358807795185326794e-01
3.358807795185326794e-01
3.358807795185326794e-01
3.060756591517004299e-01
3.060756591517004299e-01
2.953763851738632207e-01
2.953763851738632207e-01
2.953763851738632207e-01
3.217424531906763474e-01
3.217424531906763474e-01
3.232709209017959329e-01
3.232709209017959329e-01
3.232709209017959329e-01
2.949942682460833243e-01
2.949942682460833243e-01
3.163928162017577428e-01
3.163928162017577428e-01
3.163928162017577428e-01
3.133358807795185164e-01
3.133358807795185164e-01
3.110431792128391382e-01
3.110431792128391382e-01
3.110431792128391382e-01
2.751241880015284913e-01
2.751241880015284913e-01
3.011081390905617217e-01
3.011081390905617217e-01
3.011081390905617217e-01
2.904088651127245124e-01
2.904088651127245124e-01
2.648070309514711229e-01
2.648070309514711229e-01
2.648070309514711229e-01
2.896446312571647197e-01
2.896446312571647197e-01
2.896446312571647197e-01
2.896446312571647197e-01
2.896446312571647197e-01
2.690103171570500384e-01
2.690103171570500384e-01
2.583110431792128292e-01
2.583110431792128292e-01
2.583110431792128292e-01
2.835307604126862668e-01
2.835307604126862668e-01
2.911730989682843052e-01
2.911730989682843052e-01
2.911730989682843052e-01
2.586931601069927256e-01
2.586931601069927256e-01
2.678639663737103493e-01
2.678639663737103493e-01
2.678639663737103493e-01
2.632785632403515375e-01
2.632785632403515375e-01
2.777990064959877659e-01
2.777990064959877659e-01
2.777990064959877659e-01
2.728314864348490576e-01
2.728314864348490576e-01
2.479938861291555163e-01
2.479938861291555163e-01
2.479938861291555163e-01
2.426442491402369117e-01
2.426442491402369117e-01
2.552541077569736583e-01
2.552541077569736583e-01
2.552541077569736583e-01
2.758884218570882840e-01
2.758884218570882840e-01
2.667176155903706603e-01
2.667176155903706603e-01
2.667176155903706603e-01
2.602216278181123665e-01
2.602216278181123665e-01
2.720672525792892649e-01
2.720672525792892649e-01
2.720672525792892649e-01
2.606037447458922629e-01
2.606037447458922629e-01
2.376767290790982035e-01
2.376767290790982035e-01
2.376767290790982035e-01
2.495223538402751295e-01
2.495223538402751295e-01
2.709209017959495758e-01
2.709209017959495758e-01
2.709209017959495758e-01
2.369124952235384107e-01
2.369124952235384107e-01
2.434084829957967044e-01
2.434084829957967044e-01
2.434084829957967044e-01
2.564004585403133474e-01
2.564004585403133474e-01
2.304165074512800893e-01
2.304165074512800893e-01
2.304165074512800893e-01
2.567825754680932437e-01
2.567825754680932437e-01
2.388230798624378926e-01
2.388230798624378926e-01
2.388230798624378926e-01
2.269774551012609942e-01
2.269774551012609942e-01
2.571646923958731401e-01
2.571646923958731401e-01
2.571646923958731401e-01
2.594573939625525183e-01
2.594573939625525183e-01
2.479938861291555163e-01
2.479938861291555163e-01
2.479938861291555163e-01
2.216278181123423896e-01
2.216278181123423896e-01
2.357661444401986939e-01
2.357661444401986939e-01
2.357661444401986939e-01
2.548719908291937064e-01
2.548719908291937064e-01
2.227741688956820787e-01
2.227741688956820787e-01
2.227741688956820787e-01
2.262132212457011737e-01
2.262132212457011737e-01
2.200993504012227764e-01
2.200993504012227764e-01
2.200993504012227764e-01
2.388230798624378926e-01
2.388230798624378926e-01
2.170424149789835777e-01
2.170424149789835777e-01
2.170424149789835777e-01
2.449369507069163177e-01
2.449369507069163177e-01
2.178066488345433704e-01
2.178066488345433704e-01
2.178066488345433704e-01
2.120748949178448695e-01
2.120748949178448695e-01
2.384409629346579962e-01
2.384409629346579962e-01
2.384409629346579962e-01
2.151318303400840681e-01
2.151318303400840681e-01
2.139854795567443513e-01
2.139854795567443513e-01
2.139854795567443513e-01
2.086358425678257467e-01
2.086358425678257467e-01
2.193351165456629837e-01
2.193351165456629837e-01
2.193351165456629837e-01
2.258311043179212774e-01
2.258311043179212774e-01
2.208635842567825691e-01
2.208635842567825691e-01
2.208635842567825691e-01
1.971723347344287447e-01
1.971723347344287447e-01
2.021398547955674529e-01
2.021398547955674529e-01
2.021398547955674529e-01
1.895299961788307341e-01
1.895299961788307341e-01
1.979365685899885374e-01
1.979365685899885374e-01
1.979365685899885374e-01
2.158960641956438609e-01
2.158960641956438609e-01
2.078716087122659539e-01
2.078716087122659539e-01
2.078716087122659539e-01
1.853267099732518186e-01
1.853267099732518186e-01
2.132212457011845586e-01
2.132212457011845586e-01
2.132212457011845586e-01
2.078716087122659539e-01
2.078716087122659539e-01
2.021398547955674529e-01
2.021398547955674529e-01
2.021398547955674529e-01
1.841803591899121018e-01
1.841803591899121018e-01
1.715705005731753829e-01
1.715705005731753829e-01
1.715705005731753829e-01
1.979365685899885374e-01
1.979365685899885374e-01
1.971723347344287447e-01
1.971723347344287447e-01
1.971723347344287447e-01
1.891478792510508100e-01
1.891478792510508100e-01
1.979365685899885374e-01
1.979365685899885374e-01
1.956438670233091315e-01
1.956438670233091315e-01
1.956438670233091315e-01
1.956438670233091315e-01
1.956438670233091315e-01
1.696599159342759011e-01
1.696599159342759011e-01
1.696599159342759011e-01
1.922048146732900364e-01
1.922048146732900364e-01
1.753916698509744021e-01
1.753916698509744021e-01
1.753916698509744021e-01
1.666029805120366747e-01
1.666029805120366747e-01
1.547573557508597764e-01
1.547573557508597764e-01
1.547573557508597764e-01
1.837982422621322054e-01
1.837982422621322054e-01
1.482613679786014549e-01
1.482613679786014549e-01
1.482613679786014549e-01
1.494077187619411440e-01
1.494077187619411440e-01
1.643102789453572687e-01
1.643102789453572687e-01
1.643102789453572687e-01
1.513183034008406536e-01
1.513183034008406536e-01
1.482613679786014549e-01
1.482613679786014549e-01
1.482613679786014549e-01
1.616354604508979664e-01
1.616354604508979664e-01
1.574321742453190787e-01
1.574321742453190787e-01
1.574321742453190787e-01
1.727168513565150998e-01
1.727168513565150998e-01
1.673672143675964952e-01
1.673672143675964952e-01
1.673672143675964952e-01
1.704241497898356938e-01
1.704241497898356938e-01
1.543752388230798522e-01
1.543752388230798522e-01
1.543752388230798522e-01
1.356515093618647361e-01
1.356515093618647361e-01
1.345051585785250192e-01
1.345051585785250192e-01
1.345051585785250192e-01
1.329766908674054338e-01
1.329766908674054338e-01
1.398547955674436516e-01
1.398547955674436516e-01
1.398547955674436516e-01
1.440580817730225394e-01
1.440580817730225394e-01
1.352693924340848397e-01
1.352693924340848397e-01
1.352693924340848397e-01
1.283912877340466219e-01
1.283912877340466219e-01
1.310661062285059242e-01
1.310661062285059242e-01
1.310661062285059242e-01
1.623996943064577869e-01
1.623996943064577869e-01
1.513183034008406536e-01
1.513183034008406536e-01
1.513183034008406536e-01
1.257164692395873196e-01
1.257164692395873196e-01
1.360336262896446324e-01
1.360336262896446324e-01
1.360336262896446324e-01
1.241880015284677063e-01
1.241880015284677063e-01
1.486434849063813513e-01
1.486434849063813513e-01
1.486434849063813513e-01
1.570500573175391545e-01
1.570500573175391545e-01
1.440580817730225394e-01
1.440580817730225394e-01
1.440580817730225394e-01
1.272449369507069050e-01
1.272449369507069050e-01
1.524646541841803704e-01
1.524646541841803704e-01
1.524646541841803704e-01
1.184562476117692054e-01
1.184562476117692054e-01
1.474971341230416622e-01
1.474971341230416622e-01
1.474971341230416622e-01
1.150171952617500964e-01
1.150171952617500964e-01
1.394726786396637275e-01
1.394726786396637275e-01
1.394726786396637275e-01
1.486434849063813513e-01
1.486434849063813513e-01
1.520825372564004463e-01
1.520825372564004463e-01
1.520825372564004463e-01
1.146350783339702001e-01
1.146350783339702001e-01
1.153993121895299928e-01
1.153993121895299928e-01
1.153993121895299928e-01
1.230416507451280034e-01
1.230416507451280034e-01
1.161635460450897994e-01
1.161635460450897994e-01
1.161635460450897994e-01
1.459686664119220489e-01
1.459686664119220489e-01
1.467329002674818417e-01
1.467329002674818417e-01
1.467329002674818417e-01
1.115781429117309875e-01
1.115781429117309875e-01
1.303018723729461315e-01
1.303018723729461315e-01
1.303018723729461315e-01
1.138708444784103935e-01
1.138708444784103935e-01
1.432938479174627466e-01
1.432938479174627466e-01
1.432938479174627466e-01
1.146350783339702001e-01
1.146350783339702001e-01
1.134887275506304971e-01
1.134887275506304971e-01
1.134887275506304971e-01
1.180741306839892951e-01
1.180741306839892951e-01
1.390905617118838311e-01
1.390905617118838311e-01
1.390905617118838311e-01
1.226595338173481070e-01
1.226595338173481070e-01
1.257164692395873196e-01
1.257164692395873196e-01
1.257164692395873196e-01
1.077569736339319822e-01
1.077569736339319822e-01
1.134887275506304971e-01
1.134887275506304971e-01
1.134887275506304971e-01
1.085212074894917889e-01
1.085212074894917889e-01
1.287734046618265182e-01
1.287734046618265182e-01
1.287734046618265182e-01
1.024073366450133776e-01
1.024073366450133776e-01
1.387084447841039347e-01
1.387084447841039347e-01
1.387084447841039347e-01
1.127244936950706905e-01
1.127244936950706905e-01
1.379442109285441420e-01
1.379442109285441420e-01
1.379442109285441420e-01
1.108139090561711948e-01
1.108139090561711948e-01
1.016431027894535710e-01
1.016431027894535710e-01
1.016431027894535710e-01
1.379442109285441420e-01
1.379442109285441420e-01
1.364157432174245288e-01
1.364157432174245288e-01
1.364157432174245288e-01
1.394726786396637275e-01
1.394726786396637275e-01
1.196025983951089083e-01
1.196025983951089083e-01
1.196025983951089083e-01
9.896828429499426871e-02
9.896828429499426871e-02
1.012609858616736747e-01
1.012609858616736747e-01
1.012609858616736747e-01
1.047000382116927836e-01
1.047000382116927836e-01
1.180741306839892951e-01
1.180741306839892951e-01
1.180741306839892951e-01
1.142529614061902898e-01
1.142529614061902898e-01
1.047000382116927836e-01
1.047000382116927836e-01
1.047000382116927836e-01
1.039358043561329770e-01
1.039358043561329770e-01
9.400076423385556046e-02
9.400076423385556046e-02
1.165456629728696958e-01
1.165456629728696958e-01
1.165456629728696958e-01
1.222774168895682106e-01
1.222774168895682106e-01
1.031715705005731704e-01
1.031715705005731704e-01
1.031715705005731704e-01
1.257164692395873196e-01
1.257164692395873196e-01
1.153993121895299928e-01
1.153993121895299928e-01
1.153993121895299928e-01
1.188383645395491017e-01
1.188383645395491017e-01
1.123423767672907941e-01
1.123423767672907941e-01
1.123423767672907941e-01
1.035536874283530806e-01
1.035536874283530806e-01
1.207489491784486113e-01
1.207489491784486113e-01
1.207489491784486113e-01
1.004967520061138680e-01
1.004967520061138680e-01
8.559419182269774329e-02
8.559419182269774329e-02
8.559419182269774329e-02
8.597630875047763965e-02
8.597630875047763965e-02
8.903324417271685220e-02
8.903324417271685220e-02
8.903324417271685220e-02
1.165456629728696958e-01
1.165456629728696958e-01
8.788689338937714923e-02
8.788689338937714923e-02
8.788689338937714923e-02
8.750477646159725287e-02
8.750477646159725287e-02
1.196025983951089083e-01
1.196025983951089083e-01
1.196025983951089083e-01
8.559419182269774329e-02
8.559419182269774329e-02
8.482995796713795056e-02
8.482995796713795056e-02
8.482995796713795056e-02
1.089033244172716852e-01
1.089033244172716852e-01
9.935040122277416508e-02
9.935040122277416508e-02
9.935040122277416508e-02
8.941536110049674857e-02
8.941536110049674857e-02
9.056171188383645154e-02
9.056171188383645154e-02
9.056171188383645154e-02
9.361864730607566409e-02
9.361864730607566409e-02
1.196025983951089083e-01
1.196025983951089083e-01
1.196025983951089083e-01
1.157814291173099031e-01
1.157814291173099031e-01
1.241880015284677063e-01
1.241880015284677063e-01
1.241880015284677063e-01
1.207489491784486113e-01
1.207489491784486113e-01
9.476499808941536707e-02
9.476499808941536707e-02
9.476499808941536707e-02
9.896828429499426871e-02
9.896828429499426871e-02
1.314482231562858205e-01
1.314482231562858205e-01
1.314482231562858205e-01
1.100496752006113882e-01
1.100496752006113882e-01
1.398547955674436516e-01
1.398547955674436516e-01
1.398547955674436516e-01
1.383263278563240384e-01
1.383263278563240384e-01
1.432938479174627466e-01
1.432938479174627466e-01
1.432938479174627466e-01
1.574321742453190787e-01
1.574321742453190787e-01
1.364157432174245288e-01
1.364157432174245288e-01
1.364157432174245288e-01
1.746274359954146094e-01
1.746274359954146094e-01
1.627818112342376833e-01
1.627818112342376833e-01
1.627818112342376833e-01
1.666029805120366747e-01
1.666029805120366747e-01
1.868551776843714041e-01
1.868551776843714041e-01
1.868551776843714041e-01
1.899121131066106305e-01
1.899121131066106305e-01
2.051967902178066516e-01
2.051967902178066516e-01
2.051967902178066516e-01
2.296522735957202965e-01
2.296522735957202965e-01
2.143675964845242754e-01
2.143675964845242754e-01
2.143675964845242754e-01
2.521971723347344319e-01
2.521971723347344319e-01
2.334734428735192879e-01
2.334734428735192879e-01
2.334734428735192879e-01
2.735957202904088503e-01
2.735957202904088503e-01
2.831486434849063705e-01
2.831486434849063705e-01
2.831486434849063705e-01
2.636606801681314338e-01
2.636606801681314338e-01
2.854413450515858042e-01
2.854413450515858042e-01
2.854413450515858042e-01
2.900267481849446161e-01
2.900267481849446161e-01
3.163928162017577428e-01
3.163928162017577428e-01
3.163928162017577428e-01
3.049293083683607408e-01
3.049293083683607408e-01
3.477264042797095778e-01
3.477264042797095778e-01
3.477264042797095778e-01
3.588077951853266834e-01
3.588077951853266834e-01
3.393198318685518022e-01
3.393198318685518022e-01
3.393198318685518022e-01
3.618647306075659098e-01
3.618647306075659098e-01
3.752388230798624491e-01
3.752388230798624491e-01
3.752388230798624491e-01
3.649216660298051362e-01
3.649216660298051362e-01
3.893771494077187811e-01
3.893771494077187811e-01
3.893771494077187811e-01
3.886129155521589329e-01
3.886129155521589329e-01
3.863202139854795547e-01
3.863202139854795547e-01
3.863202139854795547e-01
3.985479556744364049e-01
3.985479556744364049e-01
4.207107374856706161e-01
4.207107374856706161e-01
4.207107374856706161e-01
4.237676729079098426e-01
4.237676729079098426e-01
4.298815437523882399e-01
4.298815437523882399e-01
4.298815437523882399e-01
4.279709591134887026e-01
4.279709591134887026e-01
4.050439434466946986e-01
4.050439434466946986e-01
4.050439434466946986e-01
4.405808177302254491e-01
4.405808177302254491e-01
4.344669468857470518e-01
4.344669468857470518e-01
4.344669468857470518e-01
4.356132976690867409e-01
4.356132976690867409e-01
4.405808177302254491e-01
4.405808177302254491e-01
4.405808177302254491e-01
4.321742453190676181e-01
4.321742453190676181e-01
4.352311807413068445e-01
4.352311807413068445e-01
4.352311807413068445e-01
4.451662208635842610e-01
4.451662208635842610e-01
4.302636606801681363e-01
4.302636606801681363e-01
4.302636606801681363e-01
4.455483377913641574e-01
4.455483377913641574e-01
4.593045471914405931e-01
4.593045471914405931e-01
4.593045471914405931e-01
4.371417653802063263e-01
4.371417653802063263e-01
4.573939625525410557e-01
4.573939625525410557e-01
4.486052732136033838e-01
4.486052732136033838e-01
4.486052732136033838e-01
4.528085594191822438e-01
4.528085594191822438e-01
4.528085594191822438e-01
4.528085594191822438e-01
4.528085594191822438e-01
4.306457776079480326e-01
4.306457776079480326e-01
4.344669468857470518e-01
4.344669468857470518e-01
4.344669468857470518e-01
4.298815437523882399e-01
4.298815437523882399e-01
4.463125716469239501e-01
4.463125716469239501e-01
4.463125716469239501e-01
4.352311807413068445e-01
4.352311807413068445e-01
4.665647688192586795e-01
4.665647688192586795e-01
4.665647688192586795e-01
4.310278945357279290e-01
4.310278945357279290e-01
4.409629346580053455e-01
4.409629346580053455e-01
4.409629346580053455e-01
4.325563622468475145e-01
4.325563622468475145e-01
4.635078333970195086e-01
