1.623996943064577869e-01
1.471150171952617380e-01
1.471150171952617380e-01
1.471150171952617380e-01
1.639281620175773724e-01
1.639281620175773724e-01
1.486434849063813513e-01
1.486434849063813513e-01
1.486434849063813513e-01
1.467329002674818417e-01
1.467329002674818417e-01
1.448223156285823598e-01
1.448223156285823598e-01
1.448223156285823598e-01
1.589606419564386641e-01
1.589606419564386641e-01
1.226595338173481070e-01
1.226595338173481070e-01
1.436759648452426430e-01
1.436759648452426430e-01
1.436759648452426430e-01
1.497898356897210681e-01
1.497898356897210681e-01
1.173098968284295024e-01
1.173098968284295024e-01
1.173098968284295024e-01
1.245701184562476166e-01
1.245701184562476166e-01
1.169277799006495921e-01
1.169277799006495921e-01
1.169277799006495921e-01
1.096675582728314918e-01
1.096675582728314918e-01
1.303018723729461315e-01
1.303018723729461315e-01
1.303018723729461315e-01
1.383263278563240384e-01
1.383263278563240384e-01
1.039358043561329770e-01
1.039358043561329770e-01
1.039358043561329770e-01
1.345051585785250192e-01
1.345051585785250192e-01
1.176920137562093988e-01
1.176920137562093988e-01
1.176920137562093988e-01
1.092854413450515816e-01
1.092854413450515816e-01
1.234237676729079136e-01
1.234237676729079136e-01
1.234237676729079136e-01
1.016431027894535710e-01
1.016431027894535710e-01
1.092854413450515816e-01
1.092854413450515816e-01
1.092854413450515816e-01
1.104317921283912846e-01
1.104317921283912846e-01
1.150171952617500964e-01
1.150171952617500964e-01
1.150171952617500964e-01
1.134887275506304971e-01
1.134887275506304971e-01
8.253725640045854461e-02
8.253725640045854461e-02
8.253725640045854461e-02
8.062667176155903503e-02
8.062667176155903503e-02
7.527703477264043042e-02
7.527703477264043042e-02
7.527703477264043042e-02
8.062667176155903503e-02
8.062667176155903503e-02
8.291937332823844098e-02
8.291937332823844098e-02
8.291937332823844098e-02
9.629346580053496640e-02
9.629346580053496640e-02
6.954528085594191555e-02
6.954528085594191555e-02
6.954528085594191555e-02
9.552923194497515980e-02
9.552923194497515980e-02
9.438288116163545682e-02
9.438288116163545682e-02
9.438288116163545682e-02
7.833397019487962909e-02
7.833397019487962909e-02
9.247229652273596112e-02
9.247229652273596112e-02
9.247229652273596112e-02
7.107374856706151489e-02
7.107374856706151489e-02
6.687046236148261324e-02
6.687046236148261324e-02
6.687046236148261324e-02
5.999235766144440235e-02
5.999235766144440235e-02
5.769965609476499641e-02
5.769965609476499641e-02
5.769965609476499641e-02
7.756973633931983636e-02
7.756973633931983636e-02
8.788689338937714923e-02
8.788689338937714923e-02
8.788689338937714923e-02
7.145586549484142513e-02
7.145586549484142513e-02
6.381352693924341457e-02
6.381352693924341457e-02
6.381352693924341457e-02
5.426060374474589443e-02
5.426060374474589443e-02
8.979747802827665881e-02
8.979747802827665881e-02
8.979747802827665881e-02
6.801681314482231622e-02
6.801681314482231622e-02
7.183798242262132150e-02
7.183798242262132150e-02
7.183798242262132150e-02
6.419564386702331094e-02
6.419564386702331094e-02
6.304929308368360796e-02
6.304929308368360796e-02
6.304929308368360796e-02
7.374856706152083108e-02
7.374856706152083108e-02
7.756973633931983636e-02
7.756973633931983636e-02
7.756973633931983636e-02
6.419564386702331094e-02
6.419564386702331094e-02
6.610622850592280664e-02
6.610622850592280664e-02
6.610622850592280664e-02
7.833397019487962909e-02
7.833397019487962909e-02
1.073748567061520859e-01
1.073748567061520859e-01
1.073748567061520859e-01
1.081390905617118786e-01
1.081390905617118786e-01
9.514711501719526343e-02
9.514711501719526343e-02
9.514711501719526343e-02
1.134887275506304971e-01
1.134887275506304971e-01
1.058463889950324865e-01
1.058463889950324865e-01
1.058463889950324865e-01
1.253343523118074232e-01
1.253343523118074232e-01
1.333588077951853301e-01
1.333588077951853301e-01
1.333588077951853301e-01
1.314482231562858205e-01
1.314482231562858205e-01
1.329766908674054338e-01
1.329766908674054338e-01
1.329766908674054338e-01
1.520825372564004463e-01
1.520825372564004463e-01
1.551394726786396727e-01
1.551394726786396727e-01
1.551394726786396727e-01
1.750095529231945057e-01
1.750095529231945057e-01
1.830340084065724127e-01
1.830340084065724127e-01
1.830340084065724127e-01
1.654566297286969856e-01
1.654566297286969856e-01
1.822697745510126199e-01
1.822697745510126199e-01
1.822697745510126199e-01
1.979365685899885374e-01
1.979365685899885374e-01
2.346197936568590048e-01
2.346197936568590048e-01
2.346197936568590048e-01
2.338555598012991843e-01
2.338555598012991843e-01
2.575468093236530365e-01
2.575468093236530365e-01
2.575468093236530365e-01
2.636606801681314338e-01
2.636606801681314338e-01
2.846771111960260114e-01
2.846771111960260114e-01
2.846771111960260114e-01
2.915552158960642015e-01
2.915552158960642015e-01
3.121895299961788273e-01
3.121895299961788273e-01
3.121895299961788273e-01
3.290026748184944339e-01
3.290026748184944339e-01
3.419946503630110768e-01
3.419946503630110768e-01
3.419946503630110768e-01
3.339701948796331421e-01
3.339701948796331421e-01
3.481085212074894741e-01
3.481085212074894741e-01
3.481085212074894741e-01
3.809705769965609501e-01
3.809705769965609501e-01
3.691249522353840518e-01
3.691249522353840518e-01
3.691249522353840518e-01
3.737103553687428081e-01
3.737103553687428081e-01
3.874665647688192438e-01
3.874665647688192438e-01
3.874665647688192438e-01
4.111578142911730960e-01
4.111578142911730960e-01
4.119220481467328887e-01
4.119220481467328887e-01
4.638899503247994049e-01
4.638899503247994049e-01
4.638899503247994049e-01
4.531906763469621957e-01
4.531906763469621957e-01
4.787925105082155297e-01
4.787925105082155297e-01
4.787925105082155297e-01
4.742071073748567178e-01
4.742071073748567178e-01
5.170042032862055548e-01
5.170042032862055548e-01
5.170042032862055548e-01
4.929308368360718617e-01
4.929308368360718617e-01
5.353458158196408023e-01
5.353458158196408023e-01
5.353458158196408023e-01
5.219717233473443185e-01
5.219717233473443185e-01
5.468093236530378043e-01
5.468093236530378043e-01
5.468093236530378043e-01
5.575085976308750135e-01
5.575085976308750135e-01
5.846388995032479885e-01
5.846388995032479885e-01
5.846388995032479885e-01
5.682078716087122228e-01
5.682078716087122228e-01
5.987772258311042650e-01
5.987772258311042650e-01
5.987772258311042650e-01
6.087122659533816815e-01
6.087122659533816815e-01
6.289644631257165219e-01
6.289644631257165219e-01
6.289644631257165219e-01
6.006878104700038579e-01
6.006878104700038579e-01
6.400458540313336275e-01
6.400458540313336275e-01
6.400458540313336275e-01
6.301108139090562110e-01
6.301108139090562110e-01
6.301108139090562110e-01
6.301108139090562110e-01
6.301108139090562110e-01
6.564768819258692822e-01
6.564768819258692822e-01
6.553305311425295931e-01
6.553305311425295931e-01
6.553305311425295931e-01
6.580053496369888677e-01
6.580053496369888677e-01
6.702330913259457734e-01
6.702330913259457734e-01
6.702330913259457734e-01
7.000382116927780229e-01
7.000382116927780229e-01
6.881925869316011246e-01
6.881925869316011246e-01
6.881925869316011246e-01
7.004203286205579193e-01
7.004203286205579193e-01
7.164692395873136777e-01
7.164692395873136777e-01
7.164692395873136777e-01
7.344287351929690288e-01
7.344287351929690288e-01
7.309896828429499616e-01
7.309896828429499616e-01
7.309896828429499616e-01
7.478028276652656237e-01
7.478028276652656237e-01
7.378677875429882072e-01
7.378677875429882072e-01
7.378677875429882072e-01
7.523882307986243800e-01
7.523882307986243800e-01
7.298433320596102725e-01
7.298433320596102725e-01
7.298433320596102725e-01
7.672907909820404493e-01
7.672907909820404493e-01
7.413068398930072744e-01
7.413068398930072744e-01
7.413068398930072744e-01
7.451280091708062381e-01
7.451280091708062381e-01
7.565915170042032400e-01
7.565915170042032400e-01
7.565915170042032400e-01
7.615590370653420038e-01
7.615590370653420038e-01
7.883072220099350824e-01
7.883072220099350824e-01
7.883072220099350824e-01
7.894535727932747715e-01
7.894535727932747715e-01
7.657623232709208638e-01
7.657623232709208638e-01
7.657623232709208638e-01
7.611769201375621074e-01
7.611769201375621074e-01
7.734046618265189021e-01
7.734046618265189021e-01
7.734046618265189021e-01
7.997707298433320844e-01
7.997707298433320844e-01
7.745510126098585912e-01
7.745510126098585912e-01
7.745510126098585912e-01
7.970959113488728098e-01
7.970959113488728098e-01
7.875429881543752897e-01
7.875429881543752897e-01
7.875429881543752897e-01
8.009170806266717735e-01
8.009170806266717735e-01
7.692013756209400421e-01
7.692013756209400421e-01
7.692013756209400421e-01
7.978601452044326026e-01
7.978601452044326026e-01
7.940389759266335279e-01
7.940389759266335279e-01
7.940389759266335279e-01
7.955674436377531134e-01
7.955674436377531134e-01
7.974780282766527062e-01
7.974780282766527062e-01
7.974780282766527062e-01
7.772258311043178658e-01
7.772258311043178658e-01
7.944210928544134243e-01
7.944210928544134243e-01
7.944210928544134243e-01
7.772258311043178658e-01
7.772258311043178658e-01
7.921283912877340461e-01
7.921283912877340461e-01
7.921283912877340461e-01
7.844860527321360077e-01
7.844860527321360077e-01
7.581199847153229365e-01
7.581199847153229365e-01
7.581199847153229365e-01
7.512418800152846909e-01
7.512418800152846909e-01
7.661444401987007602e-01
7.661444401987007602e-01
7.661444401987007602e-01
7.416889568207871708e-01
7.416889568207871708e-01
7.409247229652273781e-01
7.409247229652273781e-01
7.409247229652273781e-01
7.321360336262896507e-01
7.321360336262896507e-01
7.275506304929307833e-01
7.275506304929307833e-01
7.275506304929307833e-01
7.160871226595337813e-01
7.160871226595337813e-01
7.432174245319067563e-01
7.432174245319067563e-01
7.432174245319067563e-01
7.286969812762705834e-01
7.286969812762705834e-01
7.374856706152081998e-01
7.374856706152081998e-01
7.374856706152081998e-01
7.015666794038976084e-01
7.015666794038976084e-01
6.969812762705387410e-01
6.969812762705387410e-01
6.969812762705387410e-01
7.008024455483378157e-01
7.008024455483378157e-01
7.095911348872755431e-01
7.095911348872755431e-01
7.095911348872755431e-01
6.725257928926251516e-01
6.725257928926251516e-01
6.729079098204050480e-01
6.729079098204050480e-01
6.729079098204050480e-01
6.813144822315628790e-01
6.813144822315628790e-01
6.866641192204814281e-01
6.866641192204814281e-01
6.866641192204814281e-01
6.606801681314482533e-01
6.606801681314482533e-01
6.706152082537256698e-01
6.706152082537256698e-01
6.706152082537256698e-01
6.606801681314482533e-01
6.606801681314482533e-01
6.511272449369507331e-01
6.511272449369507331e-01
6.511272449369507331e-01
6.270538784868169291e-01
6.270538784868169291e-01
6.178830722200993053e-01
6.178830722200993053e-01
6.285823461979365145e-01
6.285823461979365145e-01
6.285823461979365145e-01
6.217042414978983800e-01
6.217042414978983800e-01
6.003056935422239615e-01
6.003056935422239615e-01
6.003056935422239615e-01
5.972487581199846796e-01
5.972487581199846796e-01
5.896064195643867523e-01
5.896064195643867523e-01
5.896064195643867523e-01
5.964845242644248868e-01
5.964845242644248868e-01
5.800534963698892321e-01
5.800534963698892321e-01
5.800534963698892321e-01
5.823461979365686103e-01
5.823461979365686103e-01
6.025983951089033397e-01
6.025983951089033397e-01
6.025983951089033397e-01
5.777607948032097429e-01
5.777607948032097429e-01
5.918991211310661305e-01
5.918991211310661305e-01
5.918991211310661305e-01
5.789071455865494320e-01
5.789071455865494320e-01
5.682078716087122228e-01
5.682078716087122228e-01
5.682078716087122228e-01
5.754680932365303647e-01
5.754680932365303647e-01
5.437523882307986334e-01
5.437523882307986334e-01
5.437523882307986334e-01
5.563622468475353244e-01
5.563622468475353244e-01
5.555980129919755317e-01
5.555980129919755317e-01
5.555980129919755317e-01
5.678257546809323264e-01
5.678257546809323264e-01
5.613297669086740882e-01
5.613297669086740882e-01
5.613297669086740882e-01
5.357279327474206987e-01
5.357279327474206987e-01
5.330531142529614241e-01
5.330531142529614241e-01
5.330531142529614241e-01
5.376385173863201805e-01
5.376385173863201805e-01
5.250286587695834895e-01
5.250286587695834895e-01
5.250286587695834895e-01
5.384027512418799732e-01
5.384027512418799732e-01
5.368742835307603878e-01
5.368742835307603878e-01
5.368742835307603878e-01
5.173863202139854511e-01
5.173863202139854511e-01
5.273213603362628676e-01
5.273213603362628676e-01
5.273213603362628676e-01
5.170042032862055548e-01
5.170042032862055548e-01
5.128009170806266948e-01
5.128009170806266948e-01
5.128009170806266948e-01
5.296140619029422458e-01
5.296140619029422458e-01
5.181505540695452439e-01
5.181505540695452439e-01
5.181505540695452439e-01
5.257928926251432822e-01
5.257928926251432822e-01
5.135651509361864875e-01
5.135651509361864875e-01
5.135651509361864875e-01
5.223538402751242149e-01
5.223538402751242149e-01
5.135651509361864875e-01
5.135651509361864875e-01
5.135651509361864875e-01
4.986625907527703627e-01
4.986625907527703627e-01
5.093618647306075164e-01
5.093618647306075164e-01
5.093618647306075164e-01
5.215896064195644222e-01
5.215896064195644222e-01
4.902560183416125317e-01
4.902560183416125317e-01
4.902560183416125317e-01
5.212074894917845258e-01
5.212074894917845258e-01
4.868169659915934089e-01
4.868169659915934089e-01
4.868169659915934089e-01
4.883454337027130499e-01
4.883454337027130499e-01
5.078333970194879310e-01
5.078333970194879310e-01
5.078333970194879310e-01
4.841421474971341343e-01
4.841421474971341343e-01
5.128009170806266948e-01
5.128009170806266948e-01
5.128009170806266948e-01
4.914023691249522208e-01
4.914023691249522208e-01
4.837600305693542380e-01
4.837600305693542380e-01
4.837600305693542380e-01
5.051585785250286564e-01
5.051585785250286564e-01
4.749713412304165105e-01
4.749713412304165105e-01
4.749713412304165105e-01
4.833779136415743416e-01
4.833779136415743416e-01
4.673290026748184722e-01
4.673290026748184722e-01
4.673290026748184722e-01
4.703859380970576987e-01
4.703859380970576987e-01
4.814673290026748043e-01
4.814673290026748043e-01
4.814673290026748043e-01
4.906381352693924280e-01
4.906381352693924280e-01
4.684753534581582168e-01
4.684753534581582168e-01
4.684753534581582168e-01
4.696217042414979059e-01
4.696217042414979059e-01
4.573939625525410557e-01
4.573939625525410557e-01
4.573939625525410557e-01
4.593045471914405931e-01
4.593045471914405931e-01
4.680932365303783205e-01
4.680932365303783205e-01
4.680932365303783205e-01
4.810852120748949079e-01
4.810852120748949079e-01
4.554833779136415739e-01
4.554833779136415739e-01
4.554833779136415739e-01
4.661826518914787831e-01
4.661826518914787831e-01
4.722965227359571805e-01
4.722965227359571805e-01
4.722965227359571805e-01
4.478410393580435356e-01
4.478410393580435356e-01
4.375238823079862227e-01
4.375238823079862227e-01
4.375238823079862227e-01
4.543370271303018848e-01
4.543370271303018848e-01
4.596866641192204894e-01
4.596866641192204894e-01
4.596866641192204894e-01
4.245319067634696353e-01
4.245319067634696353e-01
4.539549102025219884e-01
4.539549102025219884e-01
4.539549102025219884e-01
4.470768055024837428e-01
4.470768055024837428e-01
4.508979747802827620e-01
4.508979747802827620e-01
4.508979747802827620e-01
4.463125716469239501e-01
4.463125716469239501e-01
4.294994268246083435e-01
4.294994268246083435e-01
4.294994268246083435e-01
4.069545280855941805e-01
4.069545280855941805e-01
4.180359189912112861e-01
4.180359189912112861e-01
4.180359189912112861e-01
4.000764233855559904e-01
4.000764233855559904e-01
4.096293465800535105e-01
4.096293465800535105e-01
4.096293465800535105e-01
4.046618265189148023e-01
4.046618265189148023e-01
4.081008788689338695e-01
4.081008788689338695e-01
4.081008788689338695e-01
4.073366450133740768e-01
4.073366450133740768e-01
3.851738632021398656e-01
3.851738632021398656e-01
4.073366450133740768e-01
4.073366450133740768e-01
4.073366450133740768e-01
3.867023309132594511e-01
3.867023309132594511e-01
3.935804356132976967e-01
3.935804356132976967e-01
3.935804356132976967e-01
3.905235001910584702e-01
3.905235001910584702e-01
3.943446694688574894e-01
3.943446694688574894e-01
3.943446694688574894e-01
3.840275124188001765e-01
3.840275124188001765e-01
3.863202139854795547e-01
3.863202139854795547e-01
3.863202139854795547e-01
3.599541459686664280e-01
3.599541459686664280e-01
3.840275124188001765e-01
3.840275124188001765e-01
3.840275124188001765e-01
3.840275124188001765e-01
3.840275124188001765e-01
3.660680168131448253e-01
3.660680168131448253e-01
3.660680168131448253e-01
3.530760412686281824e-01
3.530760412686281824e-01
3.546045089797478234e-01
3.546045089797478234e-01
3.546045089797478234e-01
3.649216660298051362e-01
3.649216660298051362e-01
3.599541459686664280e-01
3.599541459686664280e-01
3.599541459686664280e-01
3.397019487963316986e-01
3.397019487963316986e-01
3.263278563240351593e-01
3.263278563240351593e-01
3.263278563240351593e-01
3.588077951853266834e-01
3.588077951853266834e-01
3.546045089797478234e-01
3.546045089797478234e-01
3.546045089797478234e-01
3.515475735575085969e-01
3.515475735575085969e-01
3.481085212074894741e-01
3.481085212074894741e-01
3.481085212074894741e-01
3.121895299961788273e-01
3.121895299961788273e-01
3.102789453572793454e-01
3.102789453572793454e-01
3.102789453572793454e-01
3.228888039740160365e-01
3.228888039740160365e-01
3.037829575850209962e-01
3.037829575850209962e-01
3.037829575850209962e-01
3.129537638517386200e-01
3.129537638517386200e-01
3.034008406572410999e-01
3.034008406572410999e-01
3.034008406572410999e-01
2.911730989682843052e-01
2.911730989682843052e-01
2.965227359572029098e-01
2.965227359572029098e-01
2.965227359572029098e-01
2.854413450515858042e-01
2.854413450515858042e-01
2.907909820405044088e-01
2.907909820405044088e-01
2.907909820405044088e-01
2.839128773404661632e-01
2.839128773404661632e-01
3.068398930072602226e-01
3.068398930072602226e-01
3.068398930072602226e-01
3.045471914405808445e-01
3.045471914405808445e-01
2.934658005349636833e-01
2.934658005349636833e-01
2.934658005349636833e-01
2.953763851738632207e-01
2.953763851738632207e-01
2.724493695070691612e-01
2.724493695070691612e-01
2.724493695070691612e-01
2.888803974016048715e-01
2.888803974016048715e-01
2.846771111960260114e-01
2.846771111960260114e-01
2.846771111960260114e-01
2.621322124570118484e-01
2.621322124570118484e-01
2.770347726404279731e-01
2.770347726404279731e-01
2.770347726404279731e-01
2.766526557126480768e-01
2.766526557126480768e-01
2.418800152846771190e-01
2.418800152846771190e-01
2.418800152846771190e-01
2.468475353458158272e-01
2.468475353458158272e-01
2.663354986625907639e-01
2.663354986625907639e-01
2.663354986625907639e-01
2.319449751623997025e-01
2.319449751623997025e-01
2.556362246847535546e-01
2.556362246847535546e-01
2.556362246847535546e-01
2.617500955292319520e-01
2.617500955292319520e-01
2.541077569736339137e-01
2.541077569736339137e-01
2.541077569736339137e-01
2.223920519679021823e-01
2.223920519679021823e-01
2.193351165456629837e-01
2.193351165456629837e-01
2.193351165456629837e-01
2.361482613679785902e-01
2.361482613679785902e-01
2.124570118456247658e-01
2.124570118456247658e-01
2.124570118456247658e-01
2.392051967902178167e-01
2.392051967902178167e-01
2.086358425678257467e-01
2.086358425678257467e-01
2.086358425678257467e-01
2.311807413068398820e-01
2.311807413068398820e-01
2.246847535345815883e-01
2.246847535345815883e-01
2.246847535345815883e-01
2.281238058846006833e-01
2.281238058846006833e-01
2.067252579289262648e-01
2.067252579289262648e-01
2.067252579289262648e-01
2.055789071455865480e-01
2.055789071455865480e-01
1.841803591899121018e-01
1.841803591899121018e-01
1.841803591899121018e-01
2.128391287734046622e-01
2.128391287734046622e-01
1.860909438288116113e-01
1.860909438288116113e-01
1.860909438288116113e-01
1.849445930454719222e-01
1.849445930454719222e-01
1.807413068398930067e-01
1.807413068398930067e-01
1.807413068398930067e-01
1.677493312953763915e-01
1.677493312953763915e-01
1.994650363011081506e-01
1.994650363011081506e-01
1.994650363011081506e-01
1.795949560565533176e-01
1.795949560565533176e-01
1.757737867787542985e-01
1.757737867787542985e-01
1.757737867787542985e-01
1.623996943064577869e-01
1.623996943064577869e-01
1.562858234619793618e-01
1.562858234619793618e-01
1.562858234619793618e-01
1.616354604508979664e-01
1.616354604508979664e-01
1.623996943064577869e-01
1.623996943064577869e-01
1.623996943064577869e-01
1.807413068398930067e-01
1.807413068398930067e-01
1.417653802063431334e-01
1.417653802063431334e-01
1.417653802063431334e-01
1.394726786396637275e-01
1.394726786396637275e-01
1.597248758119984846e-01
1.597248758119984846e-01
1.597248758119984846e-01
1.295376385173863110e-01
1.295376385173863110e-01
1.352693924340848397e-01
1.352693924340848397e-01
1.352693924340848397e-01
1.394726786396637275e-01
1.394726786396637275e-01
1.471150171952617380e-01
1.471150171952617380e-01
1.192204814673289981e-01
1.192204814673289981e-01
1.192204814673289981e-01
1.360336262896446324e-01
1.360336262896446324e-01
1.173098968284295024e-01
1.173098968284295024e-01
1.173098968284295024e-01
1.176920137562093988e-01
1.176920137562093988e-01
1.180741306839892951e-01
1.180741306839892951e-01
1.180741306839892951e-01
1.188383645395491017e-01
1.188383645395491017e-01
1.398547955674436516e-01
1.398547955674436516e-01
1.398547955674436516e-01
1.253343523118074232e-01
1.253343523118074232e-01
1.249522353840275130e-01
1.249522353840275130e-01
1.249522353840275130e-01
1.153993121895299928e-01
1.153993121895299928e-01
1.035536874283530806e-01
1.035536874283530806e-01
1.035536874283530806e-01
1.012609858616736747e-01
1.012609858616736747e-01
1.096675582728314918e-01
1.096675582728314918e-01
1.096675582728314918e-01
1.280091708062667255e-01
1.280091708062667255e-01
1.238058846006878100e-01
1.238058846006878100e-01
1.238058846006878100e-01
9.209017959495605088e-02
9.209017959495605088e-02
1.027894535727932740e-01
1.027894535727932740e-01
1.027894535727932740e-01
1.077569736339319822e-01
1.077569736339319822e-01
1.077569736339319822e-01
1.077569736339319822e-01
1.077569736339319822e-01
1.211310661062285077e-01
1.211310661062285077e-01
1.115781429117309875e-01
1.115781429117309875e-01
1.115781429117309875e-01
1.245701184562476166e-01
1.245701184562476166e-01
1.318303400840657169e-01
1.318303400840657169e-01
1.318303400840657169e-01
1.153993121895299928e-01
1.153993121895299928e-01
1.329766908674054338e-01
1.329766908674054338e-01
1.329766908674054338e-01
1.421474971341230298e-01
1.421474971341230298e-01
1.333588077951853301e-01
1.333588077951853301e-01
1.333588077951853301e-01
1.215131830340084040e-01
1.215131830340084040e-01
1.528467711119602668e-01
1.528467711119602668e-01
1.528467711119602668e-01
1.623996943064577869e-01
1.623996943064577869e-01
1.677493312953763915e-01
1.677493312953763915e-01
1.677493312953763915e-01
1.482613679786014549e-01
1.482613679786014549e-01
1.853267099732518186e-01
1.853267099732518186e-01
1.853267099732518186e-01
1.688956820787160806e-01
1.688956820787160806e-01
2.002292701566679434e-01
2.002292701566679434e-01
2.002292701566679434e-01
1.761559037065341948e-01
1.761559037065341948e-01
2.147497134123041718e-01
2.147497134123041718e-01
2.147497134123041718e-01
1.990829193733282265e-01
1.990829193733282265e-01
2.200993504012227764e-01
2.200993504012227764e-01
2.200993504012227764e-01
2.231562858234619751e-01
2.231562858234619751e-01
2.636606801681314338e-01
2.636606801681314338e-01
2.636606801681314338e-01
2.411157814291172985e-01
2.411157814291172985e-01
2.552541077569736583e-01
2.552541077569736583e-01
2.552541077569736583e-01
2.644249140236912266e-01
2.644249140236912266e-01
2.930836836071837870e-01
2.930836836071837870e-01
2.930836836071837870e-01
2.846771111960260114e-01
2.846771111960260114e-01
3.290026748184944339e-01
3.290026748184944339e-01
3.290026748184944339e-01
3.152464654184180537e-01
3.152464654184180537e-01
3.381734810852120576e-01
3.381734810852120576e-01
3.381734810852120576e-01
3.549866259075277197e-01
3.549866259075277197e-01
3.557508597630875125e-01
3.557508597630875125e-01
3.557508597630875125e-01
3.500191058463890115e-01
3.500191058463890115e-01
3.733282384409629118e-01
3.733282384409629118e-01
3.733282384409629118e-01
3.897592663354986775e-01
3.897592663354986775e-01
3.836453954910202246e-01
3.836453954910202246e-01
3.836453954910202246e-01
3.763851738632021382e-01
3.763851738632021382e-01
3.954910202521971785e-01
3.954910202521971785e-01
3.954910202521971785e-01
4.081008788689338695e-01
4.081008788689338695e-01
4.191822697745510307e-01
4.191822697745510307e-01
4.191822697745510307e-01
4.046618265189148023e-01
4.046618265189148023e-01
4.275888421857088062e-01
4.275888421857088062e-01
4.275888421857088062e-01
4.314100114635078254e-01
4.314100114635078254e-01
4.493695070691631765e-01
4.493695070691631765e-01
4.493695070691631765e-01
4.619793656858998676e-01
4.619793656858998676e-01
4.379059992357661191e-01
4.379059992357661191e-01
4.379059992357661191e-01
4.680932365303783205e-01
4.680932365303783205e-01
4.421092854413450346e-01
4.421092854413450346e-01
4.421092854413450346e-01
4.726786396637370768e-01
4.726786396637370768e-01
4.845242644249140307e-01
4.845242644249140307e-01
4.845242644249140307e-01
4.543370271303018848e-01
4.543370271303018848e-01
4.711501719526174914e-01
4.711501719526174914e-01
4.711501719526174914e-01
4.898739014138326353e-01
4.898739014138326353e-01
4.841421474971341343e-01
4.841421474971341343e-01
4.841421474971341343e-01
4.852884982804738234e-01
4.852884982804738234e-01
4.852884982804738234e-01
4.852884982804738234e-01
4.852884982804738234e-01
4.933129537638517581e-01
4.933129537638517581e-01
5.005731753916699001e-01
5.005731753916699001e-01
5.005731753916699001e-01
4.902560183416125317e-01
4.902560183416125317e-01
4.799388612915552188e-01
4.799388612915552188e-01
4.799388612915552188e-01
4.894917844860527389e-01
4.894917844860527389e-01
4.837600305693542380e-01
4.837600305693542380e-01
4.837600305693542380e-01
4.837600305693542380e-01
4.837600305693542380e-01
4.837600305693542380e-01
4.837600305693542380e-01
5.166220863584256584e-01
5.166220863584256584e-01
5.166220863584256584e-01
4.994268246083301555e-01
4.994268246083301555e-01
5.185326709973251402e-01
5.185326709973251402e-01
5.185326709973251402e-01
4.910202521971723244e-01
4.910202521971723244e-01
5.219717233473443185e-01
5.219717233473443185e-01
5.219717233473443185e-01
5.143293847917462802e-01
5.143293847917462802e-01
5.196790217806648293e-01
5.196790217806648293e-01
5.196790217806648293e-01
5.215896064195644222e-01
5.215896064195644222e-01
5.017195261750095892e-01
5.017195261750095892e-01
5.017195261750095892e-01
5.177684371417653475e-01
5.177684371417653475e-01
5.005731753916699001e-01
5.005731753916699001e-01
5.005731753916699001e-01
4.887275506304929462e-01
4.887275506304929462e-01
5.001910584638900037e-01
5.001910584638900037e-01
5.001910584638900037e-01
5.082155139472678274e-01
5.082155139472678274e-01
5.196790217806648293e-01
5.196790217806648293e-01
5.196790217806648293e-01
4.914023691249522208e-01
4.914023691249522208e-01
4.906381352693924280e-01
4.906381352693924280e-01
4.906381352693924280e-01
5.009552923194497964e-01
5.009552923194497964e-01
4.891096675582728426e-01
4.891096675582728426e-01
4.891096675582728426e-01
5.154757355750859693e-01
5.154757355750859693e-01
5.170042032862055548e-01
5.170042032862055548e-01
5.170042032862055548e-01
4.826136797860144934e-01
4.826136797860144934e-01
5.170042032862055548e-01
5.170042032862055548e-01
5.170042032862055548e-01
5.124188001528467984e-01
5.124188001528467984e-01
5.043943446694688637e-01
5.043943446694688637e-01
5.043943446694688637e-01
4.745892243026366142e-01
4.745892243026366142e-01
5.105082155139473166e-01
5.105082155139473166e-01
5.105082155139473166e-01
4.849063813526939271e-01
4.849063813526939271e-01
5.074512800917080346e-01
5.074512800917080346e-01
5.074512800917080346e-01
5.005731753916699001e-01
5.005731753916699001e-01
4.638899503247994049e-01
4.638899503247994049e-01
4.638899503247994049e-01
4.703859380970576987e-01
4.703859380970576987e-01
4.883454337027130499e-01
4.883454337027130499e-01
4.883454337027130499e-01
4.558654948414214703e-01
4.558654948414214703e-01
4.615972487581199712e-01
4.615972487581199712e-01
4.615972487581199712e-01
4.543370271303018848e-01
4.543370271303018848e-01
4.658005349636988868e-01
4.658005349636988868e-01
4.658005349636988868e-01
4.508979747802827620e-01
4.508979747802827620e-01
4.589224302636606967e-01
4.589224302636606967e-01
4.589224302636606967e-01
4.306457776079480326e-01
4.306457776079480326e-01
4.371417653802063263e-01
4.371417653802063263e-01
4.371417653802063263e-01
4.489873901413832802e-01
4.489873901413832802e-01
4.195643867023309270e-01
4.195643867023309270e-01
4.195643867023309270e-01
4.329384791746274108e-01
4.329384791746274108e-01
4.103935804356133032e-01
4.103935804356133032e-01
4.103935804356133032e-01
4.264424914023691171e-01
4.264424914023691171e-01
3.966373710355368676e-01
3.966373710355368676e-01
3.966373710355368676e-01
3.912877340466182630e-01
3.912877340466182630e-01
3.977837218188765567e-01
3.977837218188765567e-01
3.977837218188765567e-01
4.050439434466946986e-01
4.050439434466946986e-01
4.092472296522736142e-01
4.092472296522736142e-01
4.092472296522736142e-01
3.744745892243026564e-01
3.744745892243026564e-01
3.817348108521207428e-01
3.817348108521207428e-01
3.817348108521207428e-01
3.588077951853266834e-01
3.588077951853266834e-01
3.832632785632403283e-01
3.832632785632403283e-01
3.832632785632403283e-01
3.580435613297668906e-01
3.580435613297668906e-01
3.698891860909438445e-01
3.698891860909438445e-01
3.698891860909438445e-01
3.416125334352311804e-01
3.416125334352311804e-01
3.561329766908674088e-01
3.561329766908674088e-01
3.561329766908674088e-01
3.458158196408100959e-01
3.458158196408100959e-01
3.259457393962552629e-01
3.259457393962552629e-01
3.259457393962552629e-01
3.244172716851356775e-01
3.244172716851356775e-01
3.400840657241115950e-01
3.400840657241115950e-01
3.400840657241115950e-01
3.500191058463890115e-01
3.500191058463890115e-01
3.381734810852120576e-01
3.381734810852120576e-01
3.381734810852120576e-01
3.343523118074130940e-01
3.343523118074130940e-01
3.183034008406572246e-01
3.183034008406572246e-01
3.183034008406572246e-01
3.034008406572410999e-01
3.034008406572410999e-01
3.121895299961788273e-01
3.121895299961788273e-01
3.121895299961788273e-01
3.022544898739014108e-01
3.022544898739014108e-01
3.190676346962170173e-01
3.190676346962170173e-01
3.190676346962170173e-01
3.309132594573939712e-01
3.309132594573939712e-01
2.961406190294230134e-01
2.961406190294230134e-01
2.961406190294230134e-01
3.167749331295376392e-01
3.167749331295376392e-01
3.221245701184562438e-01
3.221245701184562438e-01
3.221245701184562438e-01
3.003439052350019289e-01
3.003439052350019289e-01
3.163928162017577428e-01
3.163928162017577428e-01
3.163928162017577428e-01
2.969048528849828061e-01
2.969048528849828061e-01
2.884982804738249751e-01
2.884982804738249751e-01
2.884982804738249751e-01
2.938479174627435797e-01
2.938479174627435797e-01
3.190676346962170173e-01
3.190676346962170173e-01
2.972869698127627025e-01
2.972869698127627025e-01
2.972869698127627025e-01
2.938479174627435797e-01
2.938479174627435797e-01
2.808559419182269923e-01
2.808559419182269923e-01
2.808559419182269923e-01
3.091325945739396008e-01
3.091325945739396008e-01
3.037829575850209962e-01
3.037829575850209962e-01
3.037829575850209962e-01
3.011081390905617217e-01
3.011081390905617217e-01
2.953763851738632207e-01
2.953763851738632207e-01
2.953763851738632207e-01
3.087504776461597045e-01
3.087504776461597045e-01
3.125716469239587236e-01
3.125716469239587236e-01
3.125716469239587236e-01
3.011081390905617217e-01
3.011081390905617217e-01
2.957585021016431170e-01
2.957585021016431170e-01
2.957585021016431170e-01
3.087504776461597045e-01
3.087504776461597045e-01
3.018723729461215144e-01
3.018723729461215144e-01
3.018723729461215144e-01
2.995796713794421362e-01
2.995796713794421362e-01
2.774168895682078695e-01
2.774168895682078695e-01
2.774168895682078695e-01
2.915552158960642015e-01
2.915552158960642015e-01
2.949942682460833243e-01
2.949942682460833243e-01
2.949942682460833243e-01
2.877340466182651824e-01
2.877340466182651824e-01
2.850592281238059078e-01
2.850592281238059078e-01
2.850592281238059078e-01
3.011081390905617217e-01
3.011081390905617217e-01
2.850592281238059078e-01
2.850592281238059078e-01
2.850592281238059078e-01
2.640427970959113302e-01
2.640427970959113302e-01
2.869698127627053896e-01
2.869698127627053896e-01
2.869698127627053896e-01
2.621322124570118484e-01
2.621322124570118484e-01
2.835307604126862668e-01
2.835307604126862668e-01
2.835307604126862668e-01
2.793274742071073513e-01
2.793274742071073513e-01
2.613679786014520556e-01
2.613679786014520556e-01
2.613679786014520556e-01
2.544898739014138100e-01
2.544898739014138100e-01
2.747420710737485394e-01
2.747420710737485394e-01
2.747420710737485394e-01
2.755063049293083877e-01
2.755063049293083877e-01
2.491402369124952332e-01
2.491402369124952332e-01
2.491402369124952332e-01
2.437905999235766008e-01
2.437905999235766008e-01
2.537256400458540173e-01
2.537256400458540173e-01
2.537256400458540173e-01
2.468475353458158272e-01
2.468475353458158272e-01
2.735957202904088503e-01
2.735957202904088503e-01
2.735957202904088503e-01
2.384409629346579962e-01
2.384409629346579962e-01
2.667176155903706603e-01
2.667176155903706603e-01
2.667176155903706603e-01
2.564004585403133474e-01
2.564004585403133474e-01
2.625143293847917447e-01
2.625143293847917447e-01
2.625143293847917447e-01
2.319449751623997025e-01
2.319449751623997025e-01
2.510508215513947428e-01
2.510508215513947428e-01
2.510508215513947428e-01
2.430263660680168081e-01
2.430263660680168081e-01
2.250668704623614846e-01
2.250668704623614846e-01
2.250668704623614846e-01
2.510508215513947428e-01
2.510508215513947428e-01
2.285059228123805797e-01
2.285059228123805797e-01
2.285059228123805797e-01
2.269774551012609942e-01
2.269774551012609942e-01
2.437905999235766008e-01
2.437905999235766008e-01
2.437905999235766008e-01
2.243026366068016919e-01
2.243026366068016919e-01
2.189529996178830595e-01
2.189529996178830595e-01
2.189529996178830595e-01
2.262132212457011737e-01
2.262132212457011737e-01
2.376767290790982035e-01
2.376767290790982035e-01
2.376767290790982035e-01
2.334734428735192879e-01
2.334734428735192879e-01
2.250668704623614846e-01
2.250668704623614846e-01
2.250668704623614846e-01
2.059610240733664444e-01
2.059610240733664444e-01
2.009935040122277361e-01
2.009935040122277361e-01
2.009935040122277361e-01
2.136033626289644549e-01
2.136033626289644549e-01
2.002292701566679434e-01
2.002292701566679434e-01
2.002292701566679434e-01
2.048146732900267553e-01
2.048146732900267553e-01
2.258311043179212774e-01
2.258311043179212774e-01
2.258311043179212774e-01
2.151318303400840681e-01
2.151318303400840681e-01
1.857088269010317150e-01
1.857088269010317150e-01
1.857088269010317150e-01
2.071073748567061612e-01
2.071073748567061612e-01
1.837982422621322054e-01
1.837982422621322054e-01
1.837982422621322054e-01
1.994650363011081506e-01
1.994650363011081506e-01
2.055789071455865480e-01
2.055789071455865480e-01
2.055789071455865480e-01
1.773022544898739117e-01
1.773022544898739117e-01
1.925869316010699328e-01
1.925869316010699328e-01
1.925869316010699328e-01
1.887657623232709136e-01
1.887657623232709136e-01
1.818876576232326958e-01
1.818876576232326958e-01
1.818876576232326958e-01
1.987008024455483302e-01
1.987008024455483302e-01
1.750095529231945057e-01
1.750095529231945057e-01
1.750095529231945057e-01
1.883836453954910173e-01
1.883836453954910173e-01
1.715705005731753829e-01
1.715705005731753829e-01
1.715705005731753829e-01
1.933511654566297255e-01
1.933511654566297255e-01
1.918226977455101123e-01
1.918226977455101123e-01
1.918226977455101123e-01
1.902942300343905269e-01
1.902942300343905269e-01
1.543752388230798522e-01
1.543752388230798522e-01
1.543752388230798522e-01
1.799770729843332140e-01
1.799770729843332140e-01
1.795949560565533176e-01
1.795949560565533176e-01
1.795949560565533176e-01
1.780664883454337044e-01
1.780664883454337044e-01
1.769201375620939876e-01
1.769201375620939876e-01
1.769201375620939876e-01
1.528467711119602668e-01
1.528467711119602668e-01
1.413832632785632371e-01
1.413832632785632371e-01
1.402369124952235480e-01
1.402369124952235480e-01
1.402369124952235480e-01
1.597248758119984846e-01
1.597248758119984846e-01
1.325945739396255374e-01
1.325945739396255374e-01
1.325945739396255374e-01
1.387084447841039347e-01
1.387084447841039347e-01
1.608712265953381737e-01
1.608712265953381737e-01
1.608712265953381737e-01
1.459686664119220489e-01
1.459686664119220489e-01
1.345051585785250192e-01
1.345051585785250192e-01
1.345051585785250192e-01
1.249522353840275130e-01
1.249522353840275130e-01
1.203668322506687011e-01
1.203668322506687011e-01
1.203668322506687011e-01
1.199847153228888047e-01
1.199847153228888047e-01
1.364157432174245288e-01
1.364157432174245288e-01
1.364157432174245288e-01
1.360336262896446324e-01
1.360336262896446324e-01
1.463507833397019453e-01
1.463507833397019453e-01
1.463507833397019453e-01
1.421474971341230298e-01
1.421474971341230298e-01
1.367978601452044252e-01
1.367978601452044252e-01
1.367978601452044252e-01
1.303018723729461315e-01
1.303018723729461315e-01
1.188383645395491017e-01
1.188383645395491017e-01
1.188383645395491017e-01
1.138708444784103935e-01
1.138708444784103935e-01
1.035536874283530806e-01
1.035536874283530806e-01
1.035536874283530806e-01
9.247229652273596112e-02
9.247229652273596112e-02
1.062285059228123829e-01
1.062285059228123829e-01
1.062285059228123829e-01
1.066106228505922793e-01
1.066106228505922793e-01
9.094382881161634791e-02
9.094382881161634791e-02
9.094382881161634791e-02
9.935040122277416508e-02
9.935040122277416508e-02
1.115781429117309875e-01
1.115781429117309875e-01
1.115781429117309875e-01
1.127244936950706905e-01
1.127244936950706905e-01
9.361864730607566409e-02
9.361864730607566409e-02
9.361864730607566409e-02
8.482995796713795056e-02
8.482995796713795056e-02
9.782193351165456574e-02
9.782193351165456574e-02
9.782193351165456574e-02
9.017959495605655518e-02
9.017959495605655518e-02
7.107374856706151489e-02
7.107374856706151489e-02
7.107374856706151489e-02
8.674054260603744626e-02
8.674054260603744626e-02
8.024455483377913867e-02
8.024455483377913867e-02
8.024455483377913867e-02
9.247229652273596112e-02
9.247229652273596112e-02
9.056171188383645154e-02
9.056171188383645154e-02
9.056171188383645154e-02
9.591134887275505616e-02
9.591134887275505616e-02
9.056171188383645154e-02
9.056171188383645154e-02
9.056171188383645154e-02
8.865112724493695584e-02
8.865112724493695584e-02
6.190294230034390499e-02
6.190294230034390499e-02
6.190294230034390499e-02
8.788689338937714923e-02
8.788689338937714923e-02
8.750477646159725287e-02
8.750477646159725287e-02
8.750477646159725287e-02
7.489491784486053405e-02
7.489491784486053405e-02
6.495987772258310367e-02
6.495987772258310367e-02
6.495987772258310367e-02
7.871608712265953933e-02
7.871608712265953933e-02
4.585403133358807726e-02
4.585403133358807726e-02
4.585403133358807726e-02
5.808177302254489971e-02
5.808177302254489971e-02
5.693542223920519674e-02
5.693542223920519674e-02
5.693542223920519674e-02
5.387848681696599112e-02
5.387848681696599112e-02
5.731753916698510004e-02
5.731753916698510004e-02
5.731753916698510004e-02
4.012227741688956933e-02
4.012227741688956933e-02
7.107374856706151489e-02
7.107374856706151489e-02
7.107374856706151489e-02
4.738249904470768353e-02
4.738249904470768353e-02
4.700038211692778023e-02
4.700038211692778023e-02
4.700038211692778023e-02
6.037447458922430565e-02
6.037447458922430565e-02
6.992739778372182580e-02
6.992739778372182580e-02
6.992739778372182580e-02
3.706534199465036372e-02
3.706534199465036372e-02
4.012227741688956933e-02
4.012227741688956933e-02
4.012227741688956933e-02
4.585403133358807726e-02
4.585403133358807726e-02
3.821169277799006669e-02
3.821169277799006669e-02
3.821169277799006669e-02
5.884600687810469938e-02
5.884600687810469938e-02
6.495987772258310367e-02
6.495987772258310367e-02
6.495987772258310367e-02
6.763469621704241985e-02
6.763469621704241985e-02
3.706534199465036372e-02
3.706534199465036372e-02
3.706534199465036372e-02
6.266717615590371160e-02
6.266717615590371160e-02
4.585403133358807726e-02
4.585403133358807726e-02
4.585403133358807726e-02
6.878104700038212282e-02
6.878104700038212282e-02
6.687046236148261324e-02
6.687046236148261324e-02
6.687046236148261324e-02
7.222009935040121786e-02
7.222009935040121786e-02
8.215513947267863437e-02
8.215513947267863437e-02
8.215513947267863437e-02
7.030951471150172216e-02
7.030951471150172216e-02
6.419564386702331094e-02
6.419564386702331094e-02
6.419564386702331094e-02
9.170806266717615451e-02
9.170806266717615451e-02
1.001146350783339717e-01
1.001146350783339717e-01
1.001146350783339717e-01
8.482995796713795056e-02
8.482995796713795056e-02
1.134887275506304971e-01
1.134887275506304971e-01
1.134887275506304971e-01
1.165456629728696958e-01
1.165456629728696958e-01
1.150171952617500964e-01
1.150171952617500964e-01
1.150171952617500964e-01
1.218952999617883004e-01
1.218952999617883004e-01
1.337409247229652265e-01
1.337409247229652265e-01
1.337409247229652265e-01
1.562858234619793618e-01
1.562858234619793618e-01
1.425296140619029539e-01
1.425296140619029539e-01
1.390905617118838311e-01
1.390905617118838311e-01
1.390905617118838311e-01
1.574321742453190787e-01
1.574321742453190787e-01
1.990829193733282265e-01
1.990829193733282265e-01
1.990829193733282265e-01
1.761559037065341948e-01
1.761559037065341948e-01
1.948796331677493388e-01
1.948796331677493388e-01
1.948796331677493388e-01
2.292701566679404002e-01
2.292701566679404002e-01
2.246847535345815883e-01
2.246847535345815883e-01
2.246847535345815883e-01
2.223920519679021823e-01
2.223920519679021823e-01
2.403515475735575058e-01
2.403515475735575058e-01
2.403515475735575058e-01
2.716851356515093685e-01
2.716851356515093685e-01
2.785632403515475586e-01
2.785632403515475586e-01
2.785632403515475586e-01
2.743599541459686431e-01
2.743599541459686431e-01
3.041650745128008926e-01
3.041650745128008926e-01
3.041650745128008926e-01
3.018723729461215144e-01
3.018723729461215144e-01
3.083683607183798081e-01
3.083683607183798081e-01
3.083683607183798081e-01
3.343523118074130940e-01
3.343523118074130940e-01
3.179212839128773282e-01
3.179212839128773282e-01
3.179212839128773282e-01
3.198318685517768656e-01
3.198318685517768656e-01
3.270920901795949520e-01
3.270920901795949520e-01
3.270920901795949520e-01
3.515475735575085969e-01
3.515475735575085969e-01
3.416125334352311804e-01
3.416125334352311804e-01
3.416125334352311804e-01
3.484906381352693705e-01
3.484906381352693705e-01
3.867023309132594511e-01
3.867023309132594511e-01
3.867023309132594511e-01
3.901413832632785739e-01
3.901413832632785739e-01
3.748567061520825527e-01
3.748567061520825527e-01
3.748567061520825527e-01
3.981658387466564530e-01
3.981658387466564530e-01
4.119220481467328887e-01
4.119220481467328887e-01
4.119220481467328887e-01
4.130683989300725778e-01
4.130683989300725778e-01
4.184180359189912379e-01
4.184180359189912379e-01
4.184180359189912379e-01
3.958731371799770749e-01
3.958731371799770749e-01
4.230034390523499943e-01
4.230034390523499943e-01
4.230034390523499943e-01
4.287351929690485508e-01
4.287351929690485508e-01
4.119220481467328887e-01
4.119220481467328887e-01
4.119220481467328887e-01
4.107756973633931996e-01
4.107756973633931996e-01
4.168895682078715970e-01
4.168895682078715970e-01
4.168895682078715970e-01
4.474589224302636392e-01
4.474589224302636392e-01
4.470768055024837428e-01
4.470768055024837428e-01
4.470768055024837428e-01
4.604508979747802822e-01
4.604508979747802822e-01
4.371417653802063263e-01
4.371417653802063263e-01
4.371417653802063263e-01
4.321742453190676181e-01
4.321742453190676181e-01
4.684753534581582168e-01
4.684753534581582168e-01
4.684753534581582168e-01
4.382881161635460709e-01
4.382881161635460709e-01
4.654184180359189904e-01
4.654184180359189904e-01
4.654184180359189904e-01
4.745892243026366142e-01
4.745892243026366142e-01
4.489873901413832802e-01
4.489873901413832802e-01
4.489873901413832802e-01
4.497516239969430729e-01
4.497516239969430729e-01
4.665647688192586795e-01
4.665647688192586795e-01
4.665647688192586795e-01
4.486052732136033838e-01
4.486052732136033838e-01
4.841421474971341343e-01
4.841421474971341343e-01
4.841421474971341343e-01
4.711501719526174914e-01
4.711501719526174914e-01
4.841421474971341343e-01
4.841421474971341343e-01
4.841421474971341343e-01
4.871990829193733052e-01
4.871990829193733052e-01
4.573939625525410557e-01
4.573939625525410557e-01
4.573939625525410557e-01
4.833779136415743416e-01
4.833779136415743416e-01
4.764998089415360960e-01
4.764998089415360960e-01
4.764998089415360960e-01
4.680932365303783205e-01
4.680932365303783205e-01
4.822315628582345970e-01
4.822315628582345970e-01
4.822315628582345970e-01
4.665647688192586795e-01
4.665647688192586795e-01
4.753534581581964069e-01
4.753534581581964069e-01
4.753534581581964069e-01
4.642720672525793013e-01
4.642720672525793013e-01
4.814673290026748043e-01
4.814673290026748043e-01
4.814673290026748043e-01
4.868169659915934089e-01
4.868169659915934089e-01
4.604508979747802822e-01
4.604508979747802822e-01
4.604508979747802822e-01
4.948414214749713436e-01
4.948414214749713436e-01
4.604508979747802822e-01
4.604508979747802822e-01
4.604508979747802822e-01
4.833779136415743416e-01
4.833779136415743416e-01
4.734428735192969251e-01
4.734428735192969251e-01
4.734428735192969251e-01
4.910202521971723244e-01
4.910202521971723244e-01
4.711501719526174914e-01
4.711501719526174914e-01
4.711501719526174914e-01
4.696217042414979059e-01
4.696217042414979059e-01
4.608330149025601785e-01
4.608330149025601785e-01
4.608330149025601785e-01
4.696217042414979059e-01
4.696217042414979059e-01
4.894917844860527389e-01
4.894917844860527389e-01
4.894917844860527389e-01
4.768819258693159924e-01
4.768819258693159924e-01
4.612151318303400749e-01
4.612151318303400749e-01
4.612151318303400749e-01
4.501337409247229693e-01
4.501337409247229693e-01
4.535727932747420921e-01
4.535727932747420921e-01
4.535727932747420921e-01
4.444019870080244683e-01
4.444019870080244683e-01
4.742071073748567178e-01
4.742071073748567178e-01
4.742071073748567178e-01
4.547191440580817812e-01
4.547191440580817812e-01
4.608330149025601785e-01
4.608330149025601785e-01
4.646541841803591977e-01
4.646541841803591977e-01
4.646541841803591977e-01
4.363775315246465336e-01
4.363775315246465336e-01
4.573939625525410557e-01
4.573939625525410557e-01
4.573939625525410557e-01
4.573939625525410557e-01
4.573939625525410557e-01
4.367596484524264300e-01
4.367596484524264300e-01
4.367596484524264300e-01
4.329384791746274108e-01
4.329384791746274108e-01
4.249140236912495316e-01
4.249140236912495316e-01
4.249140236912495316e-01
4.103935804356133032e-01
4.103935804356133032e-01
4.069545280855941805e-01
4.069545280855941805e-01
4.069545280855941805e-01
4.149789835689721151e-01
4.149789835689721151e-01
4.329384791746274108e-01
4.329384791746274108e-01
4.329384791746274108e-01
4.050439434466946986e-01
4.050439434466946986e-01
3.935804356132976967e-01
3.935804356132976967e-01
3.935804356132976967e-01
3.836453954910202246e-01
3.836453954910202246e-01
4.054260603744745950e-01
4.054260603744745950e-01
4.054260603744745950e-01
4.092472296522736142e-01
4.092472296522736142e-01
3.729461215131830154e-01
3.729461215131830154e-01
3.729461215131830154e-01
3.851738632021398656e-01
3.851738632021398656e-01
3.851738632021398656e-01
3.851738632021398656e-01
3.851738632021398656e-01
3.691249522353840518e-01
3.691249522353840518e-01
3.568972105464272015e-01
3.568972105464272015e-01
3.568972105464272015e-01
3.744745892243026564e-01
3.744745892243026564e-01
3.721818876576232227e-01
3.721818876576232227e-01
3.721818876576232227e-01
3.672143675964845144e-01
3.672143675964845144e-01
3.439052350019105586e-01
3.439052350019105586e-01
3.439052350019105586e-01
3.335880779518532457e-01
3.335880779518532457e-01
3.358807795185326794e-01
3.358807795185326794e-01
3.358807795185326794e-01
3.374092472296522649e-01
3.374092472296522649e-01
3.488727550630492669e-01
3.488727550630492669e-01
3.488727550630492669e-01
3.118074130683989309e-01
3.118074130683989309e-01
3.141001146350783091e-01
3.141001146350783091e-01
3.141001146350783091e-01
3.213603362628964510e-01
3.213603362628964510e-01
3.091325945739396008e-01
3.091325945739396008e-01
3.091325945739396008e-01
2.957585021016431170e-01
2.957585021016431170e-01
3.259457393962552629e-01
3.259457393962552629e-01
3.259457393962552629e-01
3.125716469239587236e-01
3.125716469239587236e-01
3.190676346962170173e-01
3.190676346962170173e-01
3.190676346962170173e-01
3.007260221627818253e-01
3.007260221627818253e-01
3.087504776461597045e-01
3.087504776461597045e-01
3.087504776461597045e-01
3.076041268628200154e-01
3.076041268628200154e-01
3.118074130683989309e-01
3.118074130683989309e-01
3.118074130683989309e-01
2.762705387848681804e-01
2.762705387848681804e-01
2.888803974016048715e-01
2.888803974016048715e-01
2.888803974016048715e-01
2.984333205961023916e-01
2.984333205961023916e-01
2.747420710737485394e-01
2.747420710737485394e-01
2.747420710737485394e-01
3.106610622850592418e-01
3.106610622850592418e-01
2.946121513183034279e-01
2.946121513183034279e-01
2.946121513183034279e-01
2.716851356515093685e-01
2.716851356515093685e-01
2.823844096293465777e-01
2.823844096293465777e-01
2.823844096293465777e-01
2.942300343905234761e-01
2.942300343905234761e-01
2.655712648070309712e-01
2.655712648070309712e-01
2.655712648070309712e-01
2.999617883072220326e-01
2.999617883072220326e-01
2.934658005349636833e-01
2.934658005349636833e-01
2.934658005349636833e-01
2.743599541459686431e-01
2.743599541459686431e-01
2.670997325181505566e-01
2.670997325181505566e-01
2.670997325181505566e-01
2.701566679403897830e-01
2.701566679403897830e-01
2.934658005349636833e-01
2.934658005349636833e-01
2.934658005349636833e-01
2.969048528849828061e-01
2.969048528849828061e-01
2.846771111960260114e-01
2.846771111960260114e-01
2.846771111960260114e-01
2.636606801681314338e-01
2.636606801681314338e-01
2.747420710737485394e-01
2.747420710737485394e-01
2.747420710737485394e-01
2.850592281238059078e-01
2.850592281238059078e-01
2.625143293847917447e-01
2.625143293847917447e-01
2.625143293847917447e-01
2.567825754680932437e-01
2.567825754680932437e-01
2.571646923958731401e-01
2.571646923958731401e-01
2.571646923958731401e-01
2.541077569736339137e-01
2.541077569736339137e-01
2.567825754680932437e-01
2.567825754680932437e-01
2.567825754680932437e-01
2.521971723347344319e-01
2.521971723347344319e-01
2.521971723347344319e-01
2.521971723347344319e-01
2.521971723347344319e-01
2.476117692013756200e-01
2.476117692013756200e-01
2.487581199847153091e-01
2.487581199847153091e-01
2.487581199847153091e-01
2.724493695070691612e-01
2.724493695070691612e-01
2.464654184180359309e-01
2.464654184180359309e-01
2.464654184180359309e-01
2.583110431792128292e-01
2.583110431792128292e-01
2.636606801681314338e-01
2.636606801681314338e-01
2.636606801681314338e-01
2.651891478792510748e-01
2.651891478792510748e-01
2.487581199847153091e-01
2.487581199847153091e-01
2.487581199847153091e-01
2.369124952235384107e-01
2.369124952235384107e-01
2.365303782957585144e-01
2.365303782957585144e-01
2.365303782957585144e-01
2.407336645013374021e-01
2.407336645013374021e-01
2.323270920901795988e-01
2.323270920901795988e-01
2.323270920901795988e-01
2.583110431792128292e-01
2.583110431792128292e-01
2.521971723347344319e-01
2.521971723347344319e-01
2.258311043179212774e-01
2.258311043179212774e-01
2.258311043179212774e-01
2.479938861291555163e-01
2.479938861291555163e-01
2.571646923958731401e-01
2.571646923958731401e-01
2.571646923958731401e-01
2.376767290790982035e-01
2.376767290790982035e-01
2.212457011845624655e-01
2.212457011845624655e-01
2.212457011845624655e-01
2.407336645013374021e-01
2.407336645013374021e-01
2.158960641956438609e-01
2.158960641956438609e-01
2.158960641956438609e-01
2.124570118456247658e-01
2.124570118456247658e-01
2.277416889568207869e-01
2.277416889568207869e-01
2.277416889568207869e-01
2.411157814291172985e-01
2.411157814291172985e-01
2.082537256400458503e-01
2.082537256400458503e-01
2.082537256400458503e-01
2.025219717233473493e-01
2.025219717233473493e-01
2.013756209400076325e-01
2.013756209400076325e-01
2.013756209400076325e-01
2.353840275124187975e-01
2.353840275124187975e-01
1.979365685899885374e-01
1.979365685899885374e-01
1.979365685899885374e-01
2.254489873901413810e-01
2.254489873901413810e-01
2.178066488345433704e-01
2.178066488345433704e-01
