3.595720290408865316e-01
3.603362628964463243e-01
3.603362628964463243e-01
3.603362628964463243e-01
3.557508597630875125e-01
3.557508597630875125e-01
3.580435613297668906e-01
3.580435613297668906e-01
3.580435613297668906e-01
3.504012227741689078e-01
3.504012227741689078e-01
3.526939243408482860e-01
3.526939243408482860e-01
3.526939243408482860e-01
3.565150936186473052e-01
3.565150936186473052e-01
3.442873519296905105e-01
3.442873519296905105e-01
3.442873519296905105e-01
3.534581581964080788e-01
3.534581581964080788e-01
3.435231180741306622e-01
3.435231180741306622e-01
3.435231180741306622e-01
3.347344287351929903e-01
3.347344287351929903e-01
3.442873519296905105e-01
3.442873519296905105e-01
3.442873519296905105e-01
3.435231180741306622e-01
3.435231180741306622e-01
3.316774933129537639e-01
3.316774933129537639e-01
3.316774933129537639e-01
3.290026748184944339e-01
3.290026748184944339e-01
3.316774933129537639e-01
3.316774933129537639e-01
3.316774933129537639e-01
3.400840657241115950e-01
3.400840657241115950e-01
3.397019487963316986e-01
3.397019487963316986e-01
3.397019487963316986e-01
3.194497516239969692e-01
3.194497516239969692e-01
3.270920901795949520e-01
3.270920901795949520e-01
3.270920901795949520e-01
3.309132594573939712e-01
3.309132594573939712e-01
3.381734810852120576e-01
3.381734810852120576e-01
3.381734810852120576e-01
3.381734810852120576e-01
3.381734810852120576e-01
3.232709209017959329e-01
3.232709209017959329e-01
3.232709209017959329e-01
3.309132594573939712e-01
3.309132594573939712e-01
3.282384409629346411e-01
3.282384409629346411e-01
3.282384409629346411e-01
3.209782193351165547e-01
3.209782193351165547e-01
3.194497516239969692e-01
3.194497516239969692e-01
3.217424531906763474e-01
3.217424531906763474e-01
3.217424531906763474e-01
3.114252961406190345e-01
3.114252961406190345e-01
3.118074130683989309e-01
3.118074130683989309e-01
3.118074130683989309e-01
3.049293083683607408e-01
3.049293083683607408e-01
3.022544898739014108e-01
3.022544898739014108e-01
3.022544898739014108e-01
3.167749331295376392e-01
3.167749331295376392e-01
3.068398930072602226e-01
3.068398930072602226e-01
3.068398930072602226e-01
3.110431792128391382e-01
3.110431792128391382e-01
2.995796713794421362e-01
2.995796713794421362e-01
2.995796713794421362e-01
3.121895299961788273e-01
3.121895299961788273e-01
2.946121513183034279e-01
2.946121513183034279e-01
2.946121513183034279e-01
2.961406190294230134e-01
2.961406190294230134e-01
3.045471914405808445e-01
3.045471914405808445e-01
3.045471914405808445e-01
3.087504776461597045e-01
3.087504776461597045e-01
3.045471914405808445e-01
3.045471914405808445e-01
3.045471914405808445e-01
3.041650745128008926e-01
3.041650745128008926e-01
2.923194497516239942e-01
2.923194497516239942e-01
2.923194497516239942e-01
2.995796713794421362e-01
2.995796713794421362e-01
2.927015666794038906e-01
2.927015666794038906e-01
2.927015666794038906e-01
2.888803974016048715e-01
2.888803974016048715e-01
2.881161635460450787e-01
2.881161635460450787e-01
2.881161635460450787e-01
2.747420710737485394e-01
2.747420710737485394e-01
2.915552158960642015e-01
2.915552158960642015e-01
2.915552158960642015e-01
2.846771111960260114e-01
2.846771111960260114e-01
2.755063049293083877e-01
2.755063049293083877e-01
2.755063049293083877e-01
2.823844096293465777e-01
2.823844096293465777e-01
2.724493695070691612e-01
2.724493695070691612e-01
2.724493695070691612e-01
2.823844096293465777e-01
2.823844096293465777e-01
2.777990064959877659e-01
2.777990064959877659e-01
2.777990064959877659e-01
2.770347726404279731e-01
2.770347726404279731e-01
2.621322124570118484e-01
2.621322124570118484e-01
2.621322124570118484e-01
2.682460833014902457e-01
2.682460833014902457e-01
2.690103171570500384e-01
2.690103171570500384e-01
2.690103171570500384e-01
2.785632403515475586e-01
2.785632403515475586e-01
2.651891478792510748e-01
2.651891478792510748e-01
2.651891478792510748e-01
2.632785632403515375e-01
2.632785632403515375e-01
2.709209017959495758e-01
2.709209017959495758e-01
2.709209017959495758e-01
2.648070309514711229e-01
2.648070309514711229e-01
2.479938861291555163e-01
2.479938861291555163e-01
2.479938861291555163e-01
2.686282002292701421e-01
2.686282002292701421e-01
2.682460833014902457e-01
2.682460833014902457e-01
2.682460833014902457e-01
2.632785632403515375e-01
2.632785632403515375e-01
2.575468093236530365e-01
2.575468093236530365e-01
2.575468093236530365e-01
2.499044707680550259e-01
2.499044707680550259e-01
2.606037447458922629e-01
2.606037447458922629e-01
2.606037447458922629e-01
2.529614061902942246e-01
2.529614061902942246e-01
2.464654184180359309e-01
2.464654184180359309e-01
2.464654184180359309e-01
2.376767290790982035e-01
2.376767290790982035e-01
2.334734428735192879e-01
2.334734428735192879e-01
2.334734428735192879e-01
2.437905999235766008e-01
2.437905999235766008e-01
2.323270920901795988e-01
2.323270920901795988e-01
2.323270920901795988e-01
2.327092090179594952e-01
2.327092090179594952e-01
2.357661444401986939e-01
2.357661444401986939e-01
2.357661444401986939e-01
2.476117692013756200e-01
2.476117692013756200e-01
2.499044707680550259e-01
2.499044707680550259e-01
2.499044707680550259e-01
2.330913259457393916e-01
2.330913259457393916e-01
2.422621322124570153e-01
2.422621322124570153e-01
2.422621322124570153e-01
2.311807413068398820e-01
2.311807413068398820e-01
2.223920519679021823e-01
2.223920519679021823e-01
2.223920519679021823e-01
2.315628582346198061e-01
2.315628582346198061e-01
2.327092090179594952e-01
2.327092090179594952e-01
2.327092090179594952e-01
2.304165074512800893e-01
2.304165074512800893e-01
2.327092090179594952e-01
2.327092090179594952e-01
2.327092090179594952e-01
2.216278181123423896e-01
2.216278181123423896e-01
2.285059228123805797e-01
2.285059228123805797e-01
2.285059228123805797e-01
2.181887657623232668e-01
2.181887657623232668e-01
2.277416889568207869e-01
2.277416889568207869e-01
2.277416889568207869e-01
2.246847535345815883e-01
2.246847535345815883e-01
2.178066488345433704e-01
2.178066488345433704e-01
2.178066488345433704e-01
2.139854795567443513e-01
2.139854795567443513e-01
2.139854795567443513e-01
2.139854795567443513e-01
2.139854795567443513e-01
2.265953381734810979e-01
2.265953381734810979e-01
2.155139472678639645e-01
2.155139472678639645e-01
2.155139472678639645e-01
2.178066488345433704e-01
2.178066488345433704e-01
2.170424149789835777e-01
2.170424149789835777e-01
2.170424149789835777e-01
2.227741688956820787e-01
2.227741688956820787e-01
2.231562858234619751e-01
2.231562858234619751e-01
2.231562858234619751e-01
2.254489873901413810e-01
2.254489873901413810e-01
2.212457011845624655e-01
2.212457011845624655e-01
2.212457011845624655e-01
2.254489873901413810e-01
2.254489873901413810e-01
2.078716087122659539e-01
2.078716087122659539e-01
2.143675964845242754e-01
2.143675964845242754e-01
2.143675964845242754e-01
2.036683225066870384e-01
2.036683225066870384e-01
2.013756209400076325e-01
2.013756209400076325e-01
2.013756209400076325e-01
2.158960641956438609e-01
2.158960641956438609e-01
2.021398547955674529e-01
2.021398547955674529e-01
2.021398547955674529e-01
2.181887657623232668e-01
2.181887657623232668e-01
2.147497134123041718e-01
2.147497134123041718e-01
2.147497134123041718e-01
1.964081008788689242e-01
1.964081008788689242e-01
2.051967902178066516e-01
2.051967902178066516e-01
2.051967902178066516e-01
2.009935040122277361e-01
2.009935040122277361e-01
1.964081008788689242e-01
1.964081008788689242e-01
1.964081008788689242e-01
2.055789071455865480e-01
2.055789071455865480e-01
2.067252579289262648e-01
2.067252579289262648e-01
2.067252579289262648e-01
2.155139472678639645e-01
2.155139472678639645e-01
2.097821933511654635e-01
2.097821933511654635e-01
2.097821933511654635e-01
1.975544516622086411e-01
1.975544516622086411e-01
1.948796331677493388e-01
1.948796331677493388e-01
1.948796331677493388e-01
1.914405808177302160e-01
1.914405808177302160e-01
1.971723347344287447e-01
1.971723347344287447e-01
1.971723347344287447e-01
1.964081008788689242e-01
1.964081008788689242e-01
2.078716087122659539e-01
2.078716087122659539e-01
2.078716087122659539e-01
1.914405808177302160e-01
1.914405808177302160e-01
1.964081008788689242e-01
1.964081008788689242e-01
1.964081008788689242e-01
2.120748949178448695e-01
2.120748949178448695e-01
2.071073748567061612e-01
2.071073748567061612e-01
2.071073748567061612e-01
2.063431410011463407e-01
2.063431410011463407e-01
1.952617500955292351e-01
1.952617500955292351e-01
1.952617500955292351e-01
2.063431410011463407e-01
2.063431410011463407e-01
2.101643102789453599e-01
2.101643102789453599e-01
2.101643102789453599e-01
1.960259839510890278e-01
1.960259839510890278e-01
1.971723347344287447e-01
1.971723347344287447e-01
1.971723347344287447e-01
1.994650363011081506e-01
1.994650363011081506e-01
1.994650363011081506e-01
1.994650363011081506e-01
1.994650363011081506e-01
1.941153993121895183e-01
1.941153993121895183e-01
1.987008024455483302e-01
1.987008024455483302e-01
1.987008024455483302e-01
1.887657623232709136e-01
1.887657623232709136e-01
1.971723347344287447e-01
1.971723347344287447e-01
1.971723347344287447e-01
1.849445930454719222e-01
1.849445930454719222e-01
1.983186855177684338e-01
1.983186855177684338e-01
1.983186855177684338e-01
1.937332823844096219e-01
1.937332823844096219e-01
2.021398547955674529e-01
2.021398547955674529e-01
2.021398547955674529e-01
1.902942300343905269e-01
1.902942300343905269e-01
1.895299961788307341e-01
1.895299961788307341e-01
1.895299961788307341e-01
1.880015284677111209e-01
1.880015284677111209e-01
1.910584638899503196e-01
1.910584638899503196e-01
1.910584638899503196e-01
2.002292701566679434e-01
2.002292701566679434e-01
1.918226977455101123e-01
1.918226977455101123e-01
1.918226977455101123e-01
1.941153993121895183e-01
1.941153993121895183e-01
1.956438670233091315e-01
1.956438670233091315e-01
1.956438670233091315e-01
1.876194115399312246e-01
1.876194115399312246e-01
1.895299961788307341e-01
1.895299961788307341e-01
1.895299961788307341e-01
1.891478792510508100e-01
1.891478792510508100e-01
1.990829193733282265e-01
1.990829193733282265e-01
1.990829193733282265e-01
1.860909438288116113e-01
1.860909438288116113e-01
1.914405808177302160e-01
1.914405808177302160e-01
1.914405808177302160e-01
1.876194115399312246e-01
1.876194115399312246e-01
1.853267099732518186e-01
1.853267099732518186e-01
1.853267099732518186e-01
1.960259839510890278e-01
1.960259839510890278e-01
1.941153993121895183e-01
1.941153993121895183e-01
1.941153993121895183e-01
1.944975162399694424e-01
1.944975162399694424e-01
1.971723347344287447e-01
1.971723347344287447e-01
1.971723347344287447e-01
1.987008024455483302e-01
1.987008024455483302e-01
1.822697745510126199e-01
1.822697745510126199e-01
1.822697745510126199e-01
1.815055406954527994e-01
1.815055406954527994e-01
1.975544516622086411e-01
1.975544516622086411e-01
1.975544516622086411e-01
1.788307222009934971e-01
1.788307222009934971e-01
1.914405808177302160e-01
1.914405808177302160e-01
1.914405808177302160e-01
1.807413068398930067e-01
1.807413068398930067e-01
1.922048146732900364e-01
1.922048146732900364e-01
1.922048146732900364e-01
1.868551776843714041e-01
1.868551776843714041e-01
1.826518914787925163e-01
1.826518914787925163e-01
1.826518914787925163e-01
1.864730607565915077e-01
1.864730607565915077e-01
1.933511654566297255e-01
1.933511654566297255e-01
1.933511654566297255e-01
1.899121131066106305e-01
1.899121131066106305e-01
1.910584638899503196e-01
1.910584638899503196e-01
1.910584638899503196e-01
1.788307222009934971e-01
1.788307222009934971e-01
1.761559037065341948e-01
1.761559037065341948e-01
1.761559037065341948e-01
1.830340084065724127e-01
1.830340084065724127e-01
1.830340084065724127e-01
1.830340084065724127e-01
1.830340084065724127e-01
1.761559037065341948e-01
1.761559037065341948e-01
1.780664883454337044e-01
1.780664883454337044e-01
1.780664883454337044e-01
1.788307222009934971e-01
1.788307222009934971e-01
1.799770729843332140e-01
1.799770729843332140e-01
1.769201375620939876e-01
1.769201375620939876e-01
1.769201375620939876e-01
1.822697745510126199e-01
1.822697745510126199e-01
1.853267099732518186e-01
1.853267099732518186e-01
1.853267099732518186e-01
1.868551776843714041e-01
1.868551776843714041e-01
1.891478792510508100e-01
1.891478792510508100e-01
1.891478792510508100e-01
1.696599159342759011e-01
1.696599159342759011e-01
1.734810852120748925e-01
1.734810852120748925e-01
1.734810852120748925e-01
1.849445930454719222e-01
1.849445930454719222e-01
1.849445930454719222e-01
1.849445930454719222e-01
1.849445930454719222e-01
1.746274359954146094e-01
1.746274359954146094e-01
1.784486052732136008e-01
1.784486052732136008e-01
1.784486052732136008e-01
1.803591899121131104e-01
1.803591899121131104e-01
1.834161253343523090e-01
1.834161253343523090e-01
1.834161253343523090e-01
1.811234237676729031e-01
1.811234237676729031e-01
1.803591899121131104e-01
1.803591899121131104e-01
1.803591899121131104e-01
1.807413068398930067e-01
1.807413068398930067e-01
1.734810852120748925e-01
1.734810852120748925e-01
1.734810852120748925e-01
1.688956820787160806e-01
1.688956820787160806e-01
1.681314482231562879e-01
1.681314482231562879e-01
1.681314482231562879e-01
1.883836453954910173e-01
1.883836453954910173e-01
1.742453190676346853e-01
1.742453190676346853e-01
1.742453190676346853e-01
1.715705005731753829e-01
1.715705005731753829e-01
1.677493312953763915e-01
1.677493312953763915e-01
1.677493312953763915e-01
1.646923958731371929e-01
1.646923958731371929e-01
1.788307222009934971e-01
1.788307222009934971e-01
1.788307222009934971e-01
1.822697745510126199e-01
1.822697745510126199e-01
1.646923958731371929e-01
1.646923958731371929e-01
1.646923958731371929e-01
1.757737867787542985e-01
1.757737867787542985e-01
1.803591899121131104e-01
1.803591899121131104e-01
1.803591899121131104e-01
1.742453190676346853e-01
1.742453190676346853e-01
1.845624761176920259e-01
1.845624761176920259e-01
1.845624761176920259e-01
1.860909438288116113e-01
1.860909438288116113e-01
1.784486052732136008e-01
1.784486052732136008e-01
1.784486052732136008e-01
1.792128391287733935e-01
1.792128391287733935e-01
1.826518914787925163e-01
1.826518914787925163e-01
1.826518914787925163e-01
2.032862055789071420e-01
2.032862055789071420e-01
1.948796331677493388e-01
1.948796331677493388e-01
1.948796331677493388e-01
1.941153993121895183e-01
1.941153993121895183e-01
2.139854795567443513e-01
2.139854795567443513e-01
2.139854795567443513e-01
1.994650363011081506e-01
1.994650363011081506e-01
2.067252579289262648e-01
2.067252579289262648e-01
2.067252579289262648e-01
2.265953381734810979e-01
2.265953381734810979e-01
2.197172334734428800e-01
2.197172334734428800e-01
2.197172334734428800e-01
2.265953381734810979e-01
2.265953381734810979e-01
2.319449751623997025e-01
2.319449751623997025e-01
2.319449751623997025e-01
2.346197936568590048e-01
2.346197936568590048e-01
2.437905999235766008e-01
2.437905999235766008e-01
2.437905999235766008e-01
2.521971723347344319e-01
2.521971723347344319e-01
2.537256400458540173e-01
2.537256400458540173e-01
2.537256400458540173e-01
2.533435231180741209e-01
2.533435231180741209e-01
2.739778372181887467e-01
2.739778372181887467e-01
2.739778372181887467e-01
2.655712648070309712e-01
2.655712648070309712e-01
2.758884218570882840e-01
2.758884218570882840e-01
2.758884218570882840e-01
2.713030187237294721e-01
2.713030187237294721e-01
2.850592281238059078e-01
2.850592281238059078e-01
2.850592281238059078e-01
2.862055789071455969e-01
2.862055789071455969e-01
3.018723729461215144e-01
3.018723729461215144e-01
3.018723729461215144e-01
3.041650745128008926e-01
3.041650745128008926e-01
2.991975544516621843e-01
2.991975544516621843e-01
2.991975544516621843e-01
3.056935422239205336e-01
3.056935422239205336e-01
3.045471914405808445e-01
3.045471914405808445e-01
3.045471914405808445e-01
3.190676346962170173e-01
3.190676346962170173e-01
3.125716469239587236e-01
3.125716469239587236e-01
3.125716469239587236e-01
3.205961024073366583e-01
3.205961024073366583e-01
3.297669086740542821e-01
3.297669086740542821e-01
3.297669086740542821e-01
3.305311425296140748e-01
3.305311425296140748e-01
3.332059610240733494e-01
3.332059610240733494e-01
3.332059610240733494e-01
3.332059610240733494e-01
3.332059610240733494e-01
3.439052350019105586e-01
3.439052350019105586e-01
3.439052350019105586e-01
3.404661826518914913e-01
3.404661826518914913e-01
3.523118074130683897e-01
3.523118074130683897e-01
3.523118074130683897e-01
3.473442873519296814e-01
3.473442873519296814e-01
3.484906381352693705e-01
3.484906381352693705e-01
3.484906381352693705e-01
3.469621704241497850e-01
3.469621704241497850e-01
3.549866259075277197e-01
3.549866259075277197e-01
3.549866259075277197e-01
3.637753152464653916e-01
3.637753152464653916e-01
3.572793274742070979e-01
3.572793274742070979e-01
3.572793274742070979e-01
3.622468475353458062e-01
3.622468475353458062e-01
3.622468475353458062e-01
3.622468475353458062e-01
3.622468475353458062e-01
3.691249522353840518e-01
3.691249522353840518e-01
3.809705769965609501e-01
3.809705769965609501e-01
3.744745892243026564e-01
3.744745892243026564e-01
3.744745892243026564e-01
3.763851738632021382e-01
3.763851738632021382e-01
3.851738632021398656e-01
3.851738632021398656e-01
3.851738632021398656e-01
3.920519679021780557e-01
3.920519679021780557e-01
3.920519679021780557e-01
3.920519679021780557e-01
3.920519679021780557e-01
3.847917462743599692e-01
3.847917462743599692e-01
3.874665647688192438e-01
3.874665647688192438e-01
3.874665647688192438e-01
3.836453954910202246e-01
3.836453954910202246e-01
3.931983186855177448e-01
3.931983186855177448e-01
3.931983186855177448e-01
4.000764233855559904e-01
4.000764233855559904e-01
3.905235001910584702e-01
3.905235001910584702e-01
3.905235001910584702e-01
4.054260603744745950e-01
4.054260603744745950e-01
3.977837218188765567e-01
3.977837218188765567e-01
3.977837218188765567e-01
4.004585403133358867e-01
4.004585403133358867e-01
3.985479556744364049e-01
3.985479556744364049e-01
3.985479556744364049e-01
4.069545280855941805e-01
4.069545280855941805e-01
4.107756973633931996e-01
4.107756973633931996e-01
4.107756973633931996e-01
4.126862820022926814e-01
4.126862820022926814e-01
4.134505158578525297e-01
4.134505158578525297e-01
4.134505158578525297e-01
4.058081773022544914e-01
4.058081773022544914e-01
4.073366450133740768e-01
4.073366450133740768e-01
4.073366450133740768e-01
4.222392051967902016e-01
4.222392051967902016e-01
4.054260603744745950e-01
4.054260603744745950e-01
4.054260603744745950e-01
4.176538020634313897e-01
4.176538020634313897e-01
4.207107374856706161e-01
4.207107374856706161e-01
4.207107374856706161e-01
4.153611004967520115e-01
4.153611004967520115e-01
4.092472296522736142e-01
4.092472296522736142e-01
4.092472296522736142e-01
4.188001528467711343e-01
4.188001528467711343e-01
4.188001528467711343e-01
4.188001528467711343e-01
4.188001528467711343e-01
4.142147497134123224e-01
4.142147497134123224e-01
4.256782575468093244e-01
4.256782575468093244e-01
4.256782575468093244e-01
4.252961406190294280e-01
4.252961406190294280e-01
4.176538020634313897e-01
4.176538020634313897e-01
4.176538020634313897e-01
4.207107374856706161e-01
4.207107374856706161e-01
4.161253343523118042e-01
4.161253343523118042e-01
4.161253343523118042e-01
4.252961406190294280e-01
4.252961406190294280e-01
4.222392051967902016e-01
4.222392051967902016e-01
4.222392051967902016e-01
4.310278945357279290e-01
4.310278945357279290e-01
4.241497898356897389e-01
4.241497898356897389e-01
4.241497898356897389e-01
4.237676729079098426e-01
4.237676729079098426e-01
4.115399312189529923e-01
4.115399312189529923e-01
4.115399312189529923e-01
4.191822697745510307e-01
4.191822697745510307e-01
4.157432174245319079e-01
4.157432174245319079e-01
4.157432174245319079e-01
4.180359189912112861e-01
4.180359189912112861e-01
4.168895682078715970e-01
4.168895682078715970e-01
4.168895682078715970e-01
4.184180359189912379e-01
4.184180359189912379e-01
4.214749713412304089e-01
4.214749713412304089e-01
4.214749713412304089e-01
4.245319067634696353e-01
4.245319067634696353e-01
4.126862820022926814e-01
4.126862820022926814e-01
4.126862820022926814e-01
4.092472296522736142e-01
4.092472296522736142e-01
4.019870080244554722e-01
4.019870080244554722e-01
4.019870080244554722e-01
4.077187619411539732e-01
4.077187619411539732e-01
4.019870080244554722e-01
4.019870080244554722e-01
4.019870080244554722e-01
4.103935804356133032e-01
4.103935804356133032e-01
4.016048910966755758e-01
4.016048910966755758e-01
4.016048910966755758e-01
4.061902942300343877e-01
4.061902942300343877e-01
3.970194879633167639e-01
3.970194879633167639e-01
3.970194879633167639e-01
4.016048910966755758e-01
4.016048910966755758e-01
3.889950324799388848e-01
3.889950324799388848e-01
3.889950324799388848e-01
3.947267863966373858e-01
3.947267863966373858e-01
3.947267863966373858e-01
3.947267863966373858e-01
3.947267863966373858e-01
3.886129155521589329e-01
3.886129155521589329e-01
3.840275124188001765e-01
3.840275124188001765e-01
3.840275124188001765e-01
3.847917462743599692e-01
3.847917462743599692e-01
3.737103553687428081e-01
3.737103553687428081e-01
3.737103553687428081e-01
3.729461215131830154e-01
3.729461215131830154e-01
3.771494077187619309e-01
3.771494077187619309e-01
3.771494077187619309e-01
3.656858998853649290e-01
3.656858998853649290e-01
3.725640045854031190e-01
3.725640045854031190e-01
3.725640045854031190e-01
3.706534199465036372e-01
3.706534199465036372e-01
3.687428353076040999e-01
3.687428353076040999e-01
3.687428353076040999e-01
3.660680168131448253e-01
3.660680168131448253e-01
3.683607183798242035e-01
3.683607183798242035e-01
3.683607183798242035e-01
3.580435613297668906e-01
3.580435613297668906e-01
3.622468475353458062e-01
3.622468475353458062e-01
3.622468475353458062e-01
3.618647306075659098e-01
3.618647306075659098e-01
3.484906381352693705e-01
3.484906381352693705e-01
3.484906381352693705e-01
3.622468475353458062e-01
3.622468475353458062e-01
3.591899121131066352e-01
3.591899121131066352e-01
3.591899121131066352e-01
3.549866259075277197e-01
3.549866259075277197e-01
3.473442873519296814e-01
3.473442873519296814e-01
3.530760412686281824e-01
3.530760412686281824e-01
3.530760412686281824e-01
3.473442873519296814e-01
3.473442873519296814e-01
3.588077951853266834e-01
3.588077951853266834e-01
3.588077951853266834e-01
3.431410011463507659e-01
3.431410011463507659e-01
3.400840657241115950e-01
3.400840657241115950e-01
3.400840657241115950e-01
3.511654566297287006e-01
3.511654566297287006e-01
3.450515857852503032e-01
3.450515857852503032e-01
3.450515857852503032e-01
3.412304165074512841e-01
3.412304165074512841e-01
3.400840657241115950e-01
3.400840657241115950e-01
3.400840657241115950e-01
3.530760412686281824e-01
3.530760412686281824e-01
3.377913641574321613e-01
3.377913641574321613e-01
3.377913641574321613e-01
3.347344287351929903e-01
3.347344287351929903e-01
3.358807795185326794e-01
3.358807795185326794e-01
3.358807795185326794e-01
3.332059610240733494e-01
3.332059610240733494e-01
3.324417271685135566e-01
3.324417271685135566e-01
3.324417271685135566e-01
3.362628964463125758e-01
3.362628964463125758e-01
3.427588842185708695e-01
3.427588842185708695e-01
3.427588842185708695e-01
3.381734810852120576e-01
3.381734810852120576e-01
3.381734810852120576e-01
3.381734810852120576e-01
3.381734810852120576e-01
3.305311425296140748e-01
3.305311425296140748e-01
3.377913641574321613e-01
3.377913641574321613e-01
3.377913641574321613e-01
3.366450133740924722e-01
3.366450133740924722e-01
3.362628964463125758e-01
3.362628964463125758e-01
3.362628964463125758e-01
3.389377149407718504e-01
3.389377149407718504e-01
3.251815055406954702e-01
3.251815055406954702e-01
3.251815055406954702e-01
3.335880779518532457e-01
3.335880779518532457e-01
3.255636224684753666e-01
3.255636224684753666e-01
3.255636224684753666e-01
3.297669086740542821e-01
3.297669086740542821e-01
3.225066870462361401e-01
3.225066870462361401e-01
3.225066870462361401e-01
3.320596102407336603e-01
3.320596102407336603e-01
3.244172716851356775e-01
3.244172716851356775e-01
3.244172716851356775e-01
3.175391669850974319e-01
3.175391669850974319e-01
3.179212839128773282e-01
3.179212839128773282e-01
3.179212839128773282e-01
3.079862437905999117e-01
3.079862437905999117e-01
3.217424531906763474e-01
3.217424531906763474e-01
3.217424531906763474e-01
3.190676346962170173e-01
3.190676346962170173e-01
3.095147115017195527e-01
3.095147115017195527e-01
3.095147115017195527e-01
3.144822315628582610e-01
3.144822315628582610e-01
3.118074130683989309e-01
3.118074130683989309e-01
3.118074130683989309e-01
3.026366068016813071e-01
3.026366068016813071e-01
3.167749331295376392e-01
3.167749331295376392e-01
3.167749331295376392e-01
3.007260221627818253e-01
3.007260221627818253e-01
3.056935422239205336e-01
3.056935422239205336e-01
3.056935422239205336e-01
2.999617883072220326e-01
2.999617883072220326e-01
3.014902560183416180e-01
3.014902560183416180e-01
3.014902560183416180e-01
2.938479174627435797e-01
2.938479174627435797e-01
3.106610622850592418e-01
3.106610622850592418e-01
3.106610622850592418e-01
2.911730989682843052e-01
2.911730989682843052e-01
3.014902560183416180e-01
3.014902560183416180e-01
3.014902560183416180e-01
3.049293083683607408e-01
3.049293083683607408e-01
2.980512036683224952e-01
2.980512036683224952e-01
2.980512036683224952e-01
2.938479174627435797e-01
2.938479174627435797e-01
2.919373328238440979e-01
2.919373328238440979e-01
2.919373328238440979e-01
2.892625143293847678e-01
2.892625143293847678e-01
2.881161635460450787e-01
2.881161635460450787e-01
2.881161635460450787e-01
2.781811234237676622e-01
2.781811234237676622e-01
2.827665265571264741e-01
2.827665265571264741e-01
2.827665265571264741e-01
2.938479174627435797e-01
2.938479174627435797e-01
2.896446312571647197e-01
2.896446312571647197e-01
2.896446312571647197e-01
2.896446312571647197e-01
2.896446312571647197e-01
2.923194497516239942e-01
2.923194497516239942e-01
2.923194497516239942e-01
2.728314864348490576e-01
2.728314864348490576e-01
2.854413450515858042e-01
2.854413450515858042e-01
2.854413450515858042e-01
2.724493695070691612e-01
2.724493695070691612e-01
2.770347726404279731e-01
2.770347726404279731e-01
2.770347726404279731e-01
2.812380588460068886e-01
2.812380588460068886e-01
2.732136033626289540e-01
2.732136033626289540e-01
2.732136033626289540e-01
2.735957202904088503e-01
2.735957202904088503e-01
2.670997325181505566e-01
2.670997325181505566e-01
2.670997325181505566e-01
2.716851356515093685e-01
2.716851356515093685e-01
2.735957202904088503e-01
2.735957202904088503e-01
2.735957202904088503e-01
2.686282002292701421e-01
2.686282002292701421e-01
2.674818494459304530e-01
2.674818494459304530e-01
2.674818494459304530e-01
2.690103171570500384e-01
2.690103171570500384e-01
2.609858616736721593e-01
2.609858616736721593e-01
2.609858616736721593e-01
2.651891478792510748e-01
2.651891478792510748e-01
2.625143293847917447e-01
2.625143293847917447e-01
2.625143293847917447e-01
2.709209017959495758e-01
2.709209017959495758e-01
2.575468093236530365e-01
2.575468093236530365e-01
2.575468093236530365e-01
2.648070309514711229e-01
2.648070309514711229e-01
2.525792892625143282e-01
2.525792892625143282e-01
2.525792892625143282e-01
2.598395108903324147e-01
2.598395108903324147e-01
2.556362246847535546e-01
2.556362246847535546e-01
2.579289262514329328e-01
2.579289262514329328e-01
2.579289262514329328e-01
2.644249140236912266e-01
2.644249140236912266e-01
2.606037447458922629e-01
2.606037447458922629e-01
2.606037447458922629e-01
2.434084829957967044e-01
2.434084829957967044e-01
2.571646923958731401e-01
2.571646923958731401e-01
2.571646923958731401e-01
2.521971723347344319e-01
2.521971723347344319e-01
2.518150554069545355e-01
2.518150554069545355e-01
2.518150554069545355e-01
2.445548337791364213e-01
2.445548337791364213e-01
2.369124952235384107e-01
2.369124952235384107e-01
2.369124952235384107e-01
2.491402369124952332e-01
2.491402369124952332e-01
2.411157814291172985e-01
2.411157814291172985e-01
2.411157814291172985e-01
2.403515475735575058e-01
2.403515475735575058e-01
2.334734428735192879e-01
2.334734428735192879e-01
2.334734428735192879e-01
2.399694306457776094e-01
2.399694306457776094e-01
2.487581199847153091e-01
2.487581199847153091e-01
2.487581199847153091e-01
2.357661444401986939e-01
2.357661444401986939e-01
2.304165074512800893e-01
2.304165074512800893e-01
2.304165074512800893e-01
2.414978983568972226e-01
2.414978983568972226e-01
2.281238058846006833e-01
2.281238058846006833e-01
2.281238058846006833e-01
2.292701566679404002e-01
2.292701566679404002e-01
2.330913259457393916e-01
2.330913259457393916e-01
2.330913259457393916e-01
2.231562858234619751e-01
2.231562858234619751e-01
2.281238058846006833e-01
2.281238058846006833e-01
2.281238058846006833e-01
2.231562858234619751e-01
2.231562858234619751e-01
2.399694306457776094e-01
2.399694306457776094e-01
2.399694306457776094e-01
2.250668704623614846e-01
2.250668704623614846e-01
2.334734428735192879e-01
2.334734428735192879e-01
2.334734428735192879e-01
2.277416889568207869e-01
2.277416889568207869e-01
2.155139472678639645e-01
2.155139472678639645e-01
2.155139472678639645e-01
2.254489873901413810e-01
2.254489873901413810e-01
2.189529996178830595e-01
2.189529996178830595e-01
2.189529996178830595e-01
2.178066488345433704e-01
2.178066488345433704e-01
2.162781811234237572e-01
2.162781811234237572e-01
2.162781811234237572e-01
2.086358425678257467e-01
2.086358425678257467e-01
2.227741688956820787e-01
2.227741688956820787e-01
2.227741688956820787e-01
2.132212457011845586e-01
2.132212457011845586e-01
2.036683225066870384e-01
2.036683225066870384e-01
2.036683225066870384e-01
2.174245319067634741e-01
2.174245319067634741e-01
2.128391287734046622e-01
2.128391287734046622e-01
2.128391287734046622e-01
2.032862055789071420e-01
2.032862055789071420e-01
1.960259839510890278e-01
1.960259839510890278e-01
1.960259839510890278e-01
1.971723347344287447e-01
1.971723347344287447e-01
2.009935040122277361e-01
2.009935040122277361e-01
2.009935040122277361e-01
2.025219717233473493e-01
2.025219717233473493e-01
2.097821933511654635e-01
2.097821933511654635e-01
2.097821933511654635e-01
2.097821933511654635e-01
2.097821933511654635e-01
1.983186855177684338e-01
1.983186855177684338e-01
1.983186855177684338e-01
2.071073748567061612e-01
2.071073748567061612e-01
1.929690485288498292e-01
1.929690485288498292e-01
1.929690485288498292e-01
2.032862055789071420e-01
2.032862055789071420e-01
1.918226977455101123e-01
1.918226977455101123e-01
1.918226977455101123e-01
2.029040886511272457e-01
2.029040886511272457e-01
1.925869316010699328e-01
1.925869316010699328e-01
1.925869316010699328e-01
1.987008024455483302e-01
1.987008024455483302e-01
2.040504394344669348e-01
2.040504394344669348e-01
2.040504394344669348e-01
1.914405808177302160e-01
1.914405808177302160e-01
1.868551776843714041e-01
1.868551776843714041e-01
1.868551776843714041e-01
1.822697745510126199e-01
1.822697745510126199e-01
1.860909438288116113e-01
1.860909438288116113e-01
1.860909438288116113e-01
1.902942300343905269e-01
1.902942300343905269e-01
1.872372946121513282e-01
1.872372946121513282e-01
1.872372946121513282e-01
1.979365685899885374e-01
1.979365685899885374e-01
1.818876576232326958e-01
1.818876576232326958e-01
1.818876576232326958e-01
1.876194115399312246e-01
1.876194115399312246e-01
1.941153993121895183e-01
1.941153993121895183e-01
1.941153993121895183e-01
1.776843714176538080e-01
1.776843714176538080e-01
1.776843714176538080e-01
1.776843714176538080e-01
1.776843714176538080e-01
1.776843714176538080e-01
1.776843714176538080e-01
1.818876576232326958e-01
1.818876576232326958e-01
1.818876576232326958e-01
1.841803591899121018e-01
1.841803591899121018e-01
1.753916698509744021e-01
1.753916698509744021e-01
1.753916698509744021e-01
1.895299961788307341e-01
1.895299961788307341e-01
1.864730607565915077e-01
1.864730607565915077e-01
1.864730607565915077e-01
1.730989682842949962e-01
1.730989682842949962e-01
1.769201375620939876e-01
1.769201375620939876e-01
1.769201375620939876e-01
1.757737867787542985e-01
1.757737867787542985e-01
1.769201375620939876e-01
1.769201375620939876e-01
1.769201375620939876e-01
1.734810852120748925e-01
1.734810852120748925e-01
1.788307222009934971e-01
1.788307222009934971e-01
1.788307222009934971e-01
1.849445930454719222e-01
1.849445930454719222e-01
1.715705005731753829e-01
1.715705005731753829e-01
1.696599159342759011e-01
1.696599159342759011e-01
1.696599159342759011e-01
1.822697745510126199e-01
1.822697745510126199e-01
1.738632021398547889e-01
1.738632021398547889e-01
1.738632021398547889e-01
1.857088269010317150e-01
1.857088269010317150e-01
1.669850974398165711e-01
1.669850974398165711e-01
1.669850974398165711e-01
1.669850974398165711e-01
1.669850974398165711e-01
1.784486052732136008e-01
1.784486052732136008e-01
1.784486052732136008e-01
1.876194115399312246e-01
1.876194115399312246e-01
1.646923958731371929e-01
1.646923958731371929e-01
1.646923958731371929e-01
1.669850974398165711e-01
1.669850974398165711e-01
1.677493312953763915e-01
1.677493312953763915e-01
1.677493312953763915e-01
1.761559037065341948e-01
1.761559037065341948e-01
1.853267099732518186e-01
1.853267099732518186e-01
1.853267099732518186e-01
1.643102789453572687e-01
1.643102789453572687e-01
1.811234237676729031e-01
1.811234237676729031e-01
1.811234237676729031e-01
1.849445930454719222e-01
1.849445930454719222e-01
1.857088269010317150e-01
1.857088269010317150e-01
1.857088269010317150e-01
1.837982422621322054e-01
1.837982422621322054e-01
1.868551776843714041e-01
1.868551776843714041e-01
1.868551776843714041e-01
1.914405808177302160e-01
1.914405808177302160e-01
1.975544516622086411e-01
1.975544516622086411e-01
1.975544516622086411e-01
1.948796331677493388e-01
1.948796331677493388e-01
2.063431410011463407e-01
2.063431410011463407e-01
2.063431410011463407e-01
2.109285441345051526e-01
2.109285441345051526e-01
2.082537256400458503e-01
2.082537256400458503e-01
2.082537256400458503e-01
2.029040886511272457e-01
2.029040886511272457e-01
2.155139472678639645e-01
2.155139472678639645e-01
2.155139472678639645e-01
2.162781811234237572e-01
2.162781811234237572e-01
2.277416889568207869e-01
2.277416889568207869e-01
2.277416889568207869e-01
2.330913259457393916e-01
2.330913259457393916e-01
2.342376767290791084e-01
2.342376767290791084e-01
2.342376767290791084e-01
2.445548337791364213e-01
2.445548337791364213e-01
2.403515475735575058e-01
2.403515475735575058e-01
2.403515475735575058e-01
2.437905999235766008e-01
2.437905999235766008e-01
2.483760030569354127e-01
2.483760030569354127e-01
2.483760030569354127e-01
2.575468093236530365e-01
2.575468093236530365e-01
2.766526557126480768e-01
2.766526557126480768e-01
2.766526557126480768e-01
2.816201757737867850e-01
2.816201757737867850e-01
2.804738249904470959e-01
2.804738249904470959e-01
2.804738249904470959e-01
2.896446312571647197e-01
2.896446312571647197e-01
2.888803974016048715e-01
2.888803974016048715e-01
2.888803974016048715e-01
2.854413450515858042e-01
2.854413450515858042e-01
2.972869698127627025e-01
2.972869698127627025e-01
2.972869698127627025e-01
2.938479174627435797e-01
2.938479174627435797e-01
3.091325945739396008e-01
3.091325945739396008e-01
3.091325945739396008e-01
2.995796713794421362e-01
2.995796713794421362e-01
3.125716469239587236e-01
3.125716469239587236e-01
3.125716469239587236e-01
3.263278563240351593e-01
3.263278563240351593e-01
3.118074130683989309e-01
3.118074130683989309e-01
3.118074130683989309e-01
3.278563240351547448e-01
3.278563240351547448e-01
3.183034008406572246e-01
3.183034008406572246e-01
3.183034008406572246e-01
3.225066870462361401e-01
3.225066870462361401e-01
3.354986625907527831e-01
3.354986625907527831e-01
3.354986625907527831e-01
3.270920901795949520e-01
3.270920901795949520e-01
3.400840657241115950e-01
3.400840657241115950e-01
3.400840657241115950e-01
3.339701948796331421e-01
3.339701948796331421e-01
3.465800534963698887e-01
3.465800534963698887e-01
3.465800534963698887e-01
3.431410011463507659e-01
3.431410011463507659e-01
3.572793274742070979e-01
3.572793274742070979e-01
3.572793274742070979e-01
3.484906381352693705e-01
3.484906381352693705e-01
3.580435613297668906e-01
3.580435613297668906e-01
3.580435613297668906e-01
3.595720290408865316e-01
3.595720290408865316e-01
3.618647306075659098e-01
3.618647306075659098e-01
3.618647306075659098e-01
3.668322506687046181e-01
3.668322506687046181e-01
3.500191058463890115e-01
3.500191058463890115e-01
3.500191058463890115e-01
3.664501337409247217e-01
3.664501337409247217e-01
3.618647306075659098e-01
3.618647306075659098e-01
3.618647306075659098e-01
3.733282384409629118e-01
3.733282384409629118e-01
3.729461215131830154e-01
3.729461215131830154e-01
3.729461215131830154e-01
3.653037829575850326e-01
3.653037829575850326e-01
3.687428353076040999e-01
3.687428353076040999e-01
3.687428353076040999e-01
3.851738632021398656e-01
3.851738632021398656e-01
3.740924722965227600e-01
3.740924722965227600e-01
3.740924722965227600e-01
3.748567061520825527e-01
3.748567061520825527e-01
3.893771494077187811e-01
3.893771494077187811e-01
3.893771494077187811e-01
3.790599923576614683e-01
3.790599923576614683e-01
3.717997707298433263e-01
3.717997707298433263e-01
3.717997707298433263e-01
3.844096293465800729e-01
3.844096293465800729e-01
3.882307986243790365e-01
3.882307986243790365e-01
3.882307986243790365e-01
3.836453954910202246e-01
3.836453954910202246e-01
3.874665647688192438e-01
3.874665647688192438e-01
3.844096293465800729e-01
3.844096293465800729e-01
3.844096293465800729e-01
3.931983186855177448e-01
3.931983186855177448e-01
3.809705769965609501e-01
3.809705769965609501e-01
3.809705769965609501e-01
3.847917462743599692e-01
3.847917462743599692e-01
3.954910202521971785e-01
3.954910202521971785e-01
3.954910202521971785e-01
3.863202139854795547e-01
3.863202139854795547e-01
3.859380970576996583e-01
3.859380970576996583e-01
3.859380970576996583e-01
3.920519679021780557e-01
3.920519679021780557e-01
3.993121895299961976e-01
3.993121895299961976e-01
3.993121895299961976e-01
3.966373710355368676e-01
3.966373710355368676e-01
3.824990447076805355e-01
3.824990447076805355e-01
3.824990447076805355e-01
3.893771494077187811e-01
3.893771494077187811e-01
3.874665647688192438e-01
3.874665647688192438e-01
3.874665647688192438e-01
3.962552541077569712e-01
3.962552541077569712e-01
3.844096293465800729e-01
3.844096293465800729e-01
3.844096293465800729e-01
3.897592663354986775e-01
3.897592663354986775e-01
3.996943064577760940e-01
3.996943064577760940e-01
3.996943064577760940e-01
3.912877340466182630e-01
3.912877340466182630e-01
3.912877340466182630e-01
3.912877340466182630e-01
3.912877340466182630e-01
3.985479556744364049e-01
3.985479556744364049e-01
3.897592663354986775e-01
3.897592663354986775e-01
3.897592663354986775e-01
3.931983186855177448e-01
3.931983186855177448e-01
3.821169277799006392e-01
3.821169277799006392e-01
3.821169277799006392e-01
3.828811616354604319e-01
3.828811616354604319e-01
3.794421092854413646e-01
3.794421092854413646e-01
3.794421092854413646e-01
3.844096293465800729e-01
3.844096293465800729e-01
3.909056171188383666e-01
3.909056171188383666e-01
3.909056171188383666e-01
3.836453954910202246e-01
3.836453954910202246e-01
3.863202139854795547e-01
3.863202139854795547e-01
3.863202139854795547e-01
3.771494077187619309e-01
3.771494077187619309e-01
3.656858998853649290e-01
3.656858998853649290e-01
3.656858998853649290e-01
3.798242262132212610e-01
3.798242262132212610e-01
3.672143675964845144e-01
3.672143675964845144e-01
3.672143675964845144e-01
3.626289644631257025e-01
3.626289644631257025e-01
3.664501337409247217e-01
3.664501337409247217e-01
3.664501337409247217e-01
3.672143675964845144e-01
3.672143675964845144e-01
3.614826136797860134e-01
3.614826136797860134e-01
3.614826136797860134e-01
3.626289644631257025e-01
3.626289644631257025e-01
3.614826136797860134e-01
3.614826136797860134e-01
3.614826136797860134e-01
3.614826136797860134e-01
3.614826136797860134e-01
3.565150936186473052e-01
3.565150936186473052e-01
3.565150936186473052e-01
3.568972105464272015e-01
3.568972105464272015e-01
3.427588842185708695e-01
3.427588842185708695e-01
3.427588842185708695e-01
3.450515857852503032e-01
3.450515857852503032e-01
3.385555980129919540e-01
3.385555980129919540e-01
3.385555980129919540e-01
3.293847917462743857e-01
3.293847917462743857e-01
3.297669086740542821e-01
3.297669086740542821e-01
3.297669086740542821e-01
3.343523118074130940e-01
3.343523118074130940e-01
3.328238440962934530e-01
3.328238440962934530e-01
3.328238440962934530e-01
3.290026748184944339e-01
3.290026748184944339e-01
3.297669086740542821e-01
3.297669086740542821e-01
3.297669086740542821e-01
3.198318685517768656e-01
3.198318685517768656e-01
3.186855177684371210e-01
3.186855177684371210e-01
3.186855177684371210e-01
3.183034008406572246e-01
3.183034008406572246e-01
3.072220099350401190e-01
3.072220099350401190e-01
3.072220099350401190e-01
3.121895299961788273e-01
3.121895299961788273e-01
3.003439052350019289e-01
3.003439052350019289e-01
3.003439052350019289e-01
2.999617883072220326e-01
2.999617883072220326e-01
2.988154375238822880e-01
2.988154375238822880e-01
2.988154375238822880e-01
2.877340466182651824e-01
2.877340466182651824e-01
2.888803974016048715e-01
2.888803974016048715e-01
2.888803974016048715e-01
2.969048528849828061e-01
2.969048528849828061e-01
2.907909820405044088e-01
2.907909820405044088e-01
2.907909820405044088e-01
2.896446312571647197e-01
2.896446312571647197e-01
2.835307604126862668e-01
2.835307604126862668e-01
2.835307604126862668e-01
2.858234619793657005e-01
2.858234619793657005e-01
2.927015666794038906e-01
2.927015666794038906e-01
2.927015666794038906e-01
2.907909820405044088e-01
2.907909820405044088e-01
2.781811234237676622e-01
2.781811234237676622e-01
2.781811234237676622e-01
2.743599541459686431e-01
2.743599541459686431e-01
2.701566679403897830e-01
2.701566679403897830e-01
2.701566679403897830e-01
2.777990064959877659e-01
2.777990064959877659e-01
2.751241880015284913e-01
2.751241880015284913e-01
2.751241880015284913e-01
2.667176155903706603e-01
2.667176155903706603e-01
2.640427970959113302e-01
2.640427970959113302e-01
2.640427970959113302e-01
2.632785632403515375e-01
2.632785632403515375e-01
2.743599541459686431e-01
2.743599541459686431e-01
2.743599541459686431e-01
2.686282002292701421e-01
2.686282002292701421e-01
2.667176155903706603e-01
2.667176155903706603e-01
2.667176155903706603e-01
2.602216278181123665e-01
2.602216278181123665e-01
2.552541077569736583e-01
2.552541077569736583e-01
2.552541077569736583e-01
2.575468093236530365e-01
2.575468093236530365e-01
2.472296522735957236e-01
2.472296522735957236e-01
2.606037447458922629e-01
2.606037447458922629e-01
2.606037447458922629e-01
2.514329384791746391e-01
2.514329384791746391e-01
2.464654184180359309e-01
2.464654184180359309e-01
2.464654184180359309e-01
2.609858616736721593e-01
2.609858616736721593e-01
2.651891478792510748e-01
2.651891478792510748e-01
2.651891478792510748e-01
2.468475353458158272e-01
2.468475353458158272e-01
2.411157814291172985e-01
2.411157814291172985e-01
2.411157814291172985e-01
2.453190676346962140e-01
2.453190676346962140e-01
2.388230798624378926e-01
2.388230798624378926e-01
2.388230798624378926e-01
2.518150554069545355e-01
2.518150554069545355e-01
2.414978983568972226e-01
2.414978983568972226e-01
2.414978983568972226e-01
2.437905999235766008e-01
2.437905999235766008e-01
2.422621322124570153e-01
2.422621322124570153e-01
2.422621322124570153e-01
2.327092090179594952e-01
2.327092090179594952e-01
2.407336645013374021e-01
2.407336645013374021e-01
2.407336645013374021e-01
2.288880397401604760e-01
2.288880397401604760e-01
2.464654184180359309e-01
2.464654184180359309e-01
2.464654184180359309e-01
2.307986243790599856e-01
2.307986243790599856e-01
2.372946121513183071e-01
2.372946121513183071e-01
2.372946121513183071e-01
2.319449751623997025e-01
2.319449751623997025e-01
2.330913259457393916e-01
2.330913259457393916e-01
2.330913259457393916e-01
2.376767290790982035e-01
2.376767290790982035e-01
2.235384027512418714e-01
2.235384027512418714e-01
2.235384027512418714e-01
2.193351165456629837e-01
2.193351165456629837e-01
2.243026366068016919e-01
2.243026366068016919e-01
2.243026366068016919e-01
2.273595720290408906e-01
2.273595720290408906e-01
2.189529996178830595e-01
2.189529996178830595e-01
2.189529996178830595e-01
2.319449751623997025e-01
2.319449751623997025e-01
2.327092090179594952e-01
2.327092090179594952e-01
2.327092090179594952e-01
2.220099350401222860e-01
2.220099350401222860e-01
2.239205196790217678e-01
2.239205196790217678e-01
2.239205196790217678e-01
2.120748949178448695e-01
2.120748949178448695e-01
2.189529996178830595e-01
2.189529996178830595e-01
2.189529996178830595e-01
2.094000764233855671e-01
2.094000764233855671e-01
2.265953381734810979e-01
2.265953381734810979e-01
2.265953381734810979e-01
2.094000764233855671e-01
2.094000764233855671e-01
2.139854795567443513e-01
2.139854795567443513e-01
2.139854795567443513e-01
2.044325563622468589e-01
2.044325563622468589e-01
2.105464272067252562e-01
2.105464272067252562e-01
2.105464272067252562e-01
2.086358425678257467e-01
2.086358425678257467e-01
1.983186855177684338e-01
1.983186855177684338e-01
1.983186855177684338e-01
2.040504394344669348e-01
2.040504394344669348e-01
2.132212457011845586e-01
2.132212457011845586e-01
2.132212457011845586e-01
2.017577378677875566e-01
2.017577378677875566e-01
1.910584638899503196e-01
1.910584638899503196e-01
1.910584638899503196e-01
2.074894917844860576e-01
2.074894917844860576e-01
1.952617500955292351e-01
1.952617500955292351e-01
1.952617500955292351e-01
1.983186855177684338e-01
1.983186855177684338e-01
1.979365685899885374e-01
1.979365685899885374e-01
1.979365685899885374e-01
1.944975162399694424e-01
1.944975162399694424e-01
1.883836453954910173e-01
1.883836453954910173e-01
1.883836453954910173e-01
1.967902178066488483e-01
1.967902178066488483e-01
1.826518914787925163e-01
1.826518914787925163e-01
1.826518914787925163e-01
1.788307222009934971e-01
1.788307222009934971e-01
1.864730607565915077e-01
1.864730607565915077e-01
1.864730607565915077e-01
1.830340084065724127e-01
1.830340084065724127e-01
1.895299961788307341e-01
1.895299961788307341e-01
1.895299961788307341e-01
1.922048146732900364e-01
1.922048146732900364e-01
1.914405808177302160e-01
1.914405808177302160e-01
1.914405808177302160e-01
1.845624761176920259e-01
1.845624761176920259e-01
1.853267099732518186e-01
1.853267099732518186e-01
1.853267099732518186e-01
1.715705005731753829e-01
1.715705005731753829e-01
1.860909438288116113e-01
1.860909438288116113e-01
1.860909438288116113e-01
1.899121131066106305e-01
1.899121131066106305e-01
1.719526175009552793e-01
1.719526175009552793e-01
1.719526175009552793e-01
1.746274359954146094e-01
1.746274359954146094e-01
1.841803591899121018e-01
1.841803591899121018e-01
1.841803591899121018e-01
1.788307222009934971e-01
1.788307222009934971e-01
1.807413068398930067e-01
1.807413068398930067e-01
1.807413068398930067e-01
1.830340084065724127e-01
1.830340084065724127e-01
1.750095529231945057e-01
1.750095529231945057e-01
1.750095529231945057e-01
1.784486052732136008e-01
1.784486052732136008e-01
1.738632021398547889e-01
1.738632021398547889e-01
1.738632021398547889e-01
1.650745128009170892e-01
1.650745128009170892e-01
1.822697745510126199e-01
1.822697745510126199e-01
1.822697745510126199e-01
1.723347344287352034e-01
1.723347344287352034e-01
1.788307222009934971e-01
1.788307222009934971e-01
1.788307222009934971e-01
1.681314482231562879e-01
1.681314482231562879e-01
1.757737867787542985e-01
1.757737867787542985e-01
1.757737867787542985e-01
1.730989682842949962e-01
1.730989682842949962e-01
1.662208635842567783e-01
1.662208635842567783e-01
1.853267099732518186e-01
1.853267099732518186e-01
1.853267099732518186e-01
1.799770729843332140e-01
1.799770729843332140e-01
1.826518914787925163e-01
1.826518914787925163e-01
1.826518914787925163e-01
1.635460450897974760e-01
1.635460450897974760e-01
1.673672143675964952e-01
1.673672143675964952e-01
1.673672143675964952e-01
1.654566297286969856e-01
1.654566297286969856e-01
1.776843714176538080e-01
1.776843714176538080e-01
1.776843714176538080e-01
1.719526175009552793e-01
1.719526175009552793e-01
1.738632021398547889e-01
1.738632021398547889e-01
1.738632021398547889e-01
1.704241497898356938e-01
1.704241497898356938e-01
1.639281620175773724e-01
1.639281620175773724e-01
1.639281620175773724e-01
1.811234237676729031e-01
1.811234237676729031e-01
1.746274359954146094e-01
1.746274359954146094e-01
1.746274359954146094e-01
1.654566297286969856e-01
1.654566297286969856e-01
1.780664883454337044e-01
1.780664883454337044e-01
1.780664883454337044e-01
1.635460450897974760e-01
1.635460450897974760e-01
1.719526175009552793e-01
1.719526175009552793e-01
1.719526175009552793e-01
1.681314482231562879e-01
1.681314482231562879e-01
1.650745128009170892e-01
1.650745128009170892e-01
1.650745128009170892e-01
1.719526175009552793e-01
1.719526175009552793e-01
1.623996943064577869e-01
1.623996943064577869e-01
1.623996943064577869e-01
1.734810852120748925e-01
1.734810852120748925e-01
1.685135651509361843e-01
1.685135651509361843e-01
1.685135651509361843e-01
1.730989682842949962e-01
1.730989682842949962e-01
1.646923958731371929e-01
1.646923958731371929e-01
1.646923958731371929e-01
1.639281620175773724e-01
1.639281620175773724e-01
1.685135651509361843e-01
1.685135651509361843e-01
1.685135651509361843e-01
1.715705005731753829e-01
1.715705005731753829e-01
1.723347344287352034e-01
1.723347344287352034e-01
1.723347344287352034e-01
1.765380206343140912e-01
1.765380206343140912e-01
1.711883836453954866e-01
1.711883836453954866e-01
1.711883836453954866e-01
1.826518914787925163e-01
1.826518914787925163e-01
1.734810852120748925e-01
1.734810852120748925e-01
1.734810852120748925e-01
1.738632021398547889e-01
1.738632021398547889e-01
1.776843714176538080e-01
1.776843714176538080e-01
1.776843714176538080e-01
1.792128391287733935e-01
1.792128391287733935e-01
1.784486052732136008e-01
1.784486052732136008e-01
1.784486052732136008e-01
1.688956820787160806e-01
1.688956820787160806e-01
1.662208635842567783e-01
1.662208635842567783e-01
1.662208635842567783e-01
1.803591899121131104e-01
1.803591899121131104e-01
1.715705005731753829e-01
1.715705005731753829e-01
1.715705005731753829e-01
1.631639281620175796e-01
1.631639281620175796e-01
1.734810852120748925e-01
1.734810852120748925e-01
1.734810852120748925e-01
1.635460450897974760e-01
1.635460450897974760e-01
1.704241497898356938e-01
1.704241497898356938e-01
1.704241497898356938e-01
1.784486052732136008e-01
1.784486052732136008e-01
1.719526175009552793e-01
1.719526175009552793e-01
1.719526175009552793e-01
1.719526175009552793e-01
1.719526175009552793e-01
1.708062667176155902e-01
1.708062667176155902e-01
1.708062667176155902e-01
1.646923958731371929e-01
1.646923958731371929e-01
1.799770729843332140e-01
1.799770729843332140e-01
1.799770729843332140e-01
1.578142911730989750e-01
1.578142911730989750e-01
1.727168513565150998e-01
1.727168513565150998e-01
1.727168513565150998e-01
1.792128391287733935e-01
1.792128391287733935e-01
1.658387466564768820e-01
1.658387466564768820e-01
1.658387466564768820e-01
1.696599159342759011e-01
1.696599159342759011e-01
1.746274359954146094e-01
1.746274359954146094e-01
1.746274359954146094e-01
1.769201375620939876e-01
1.769201375620939876e-01
1.654566297286969856e-01
1.654566297286969856e-01
1.654566297286969856e-01
1.643102789453572687e-01
1.643102789453572687e-01
1.738632021398547889e-01
1.738632021398547889e-01
1.738632021398547889e-01
1.734810852120748925e-01
1.734810852120748925e-01
1.811234237676729031e-01
1.811234237676729031e-01
1.811234237676729031e-01
1.662208635842567783e-01
1.662208635842567783e-01
1.601069927397783810e-01
1.601069927397783810e-01
1.601069927397783810e-01
1.761559037065341948e-01
1.761559037065341948e-01
1.635460450897974760e-01
1.635460450897974760e-01
1.635460450897974760e-01
1.635460450897974760e-01
1.635460450897974760e-01
1.604891096675582773e-01
1.604891096675582773e-01
1.604891096675582773e-01
1.574321742453190787e-01
1.574321742453190787e-01
1.730989682842949962e-01
1.730989682842949962e-01
1.730989682842949962e-01
1.566679403897592582e-01
1.566679403897592582e-01
1.723347344287352034e-01
1.723347344287352034e-01
1.723347344287352034e-01
1.681314482231562879e-01
1.681314482231562879e-01
1.727168513565150998e-01
1.727168513565150998e-01
1.727168513565150998e-01
1.650745128009170892e-01
1.650745128009170892e-01
1.711883836453954866e-01
1.711883836453954866e-01
1.711883836453954866e-01
1.711883836453954866e-01
1.711883836453954866e-01
1.631639281620175796e-01
1.631639281620175796e-01
1.631639281620175796e-01
1.769201375620939876e-01
