1.807413068398930067e-01
1.807413068398930067e-01
1.845624761176920259e-01
1.845624761176920259e-01
1.845624761176920259e-01
1.715705005731753829e-01
1.715705005731753829e-01
1.730989682842949962e-01
1.730989682842949962e-01
1.730989682842949962e-01
1.811234237676729031e-01
1.811234237676729031e-01
1.761559037065341948e-01
1.761559037065341948e-01
1.761559037065341948e-01
1.750095529231945057e-01
1.750095529231945057e-01
1.761559037065341948e-01
1.761559037065341948e-01
1.761559037065341948e-01
1.811234237676729031e-01
1.811234237676729031e-01
1.795949560565533176e-01
1.795949560565533176e-01
1.795949560565533176e-01
1.761559037065341948e-01
1.761559037065341948e-01
1.700420328620557975e-01
1.700420328620557975e-01
1.700420328620557975e-01
1.696599159342759011e-01
1.696599159342759011e-01
1.666029805120366747e-01
1.666029805120366747e-01
1.627818112342376833e-01
1.627818112342376833e-01
1.627818112342376833e-01
1.673672143675964952e-01
1.673672143675964952e-01
1.593427588842185605e-01
1.593427588842185605e-01
1.593427588842185605e-01
1.646923958731371929e-01
1.646923958731371929e-01
1.666029805120366747e-01
1.666029805120366747e-01
1.666029805120366747e-01
1.708062667176155902e-01
1.708062667176155902e-01
1.604891096675582773e-01
1.604891096675582773e-01
1.604891096675582773e-01
1.658387466564768820e-01
1.658387466564768820e-01
1.532288880397401631e-01
1.532288880397401631e-01
1.532288880397401631e-01
1.593427588842185605e-01
1.593427588842185605e-01
1.532288880397401631e-01
1.532288880397401631e-01
1.532288880397401631e-01
1.551394726786396727e-01
1.551394726786396727e-01
1.539931218952999559e-01
1.539931218952999559e-01
1.539931218952999559e-01
1.631639281620175796e-01
1.631639281620175796e-01
1.547573557508597764e-01
1.547573557508597764e-01
1.547573557508597764e-01
1.574321742453190787e-01
1.574321742453190787e-01
1.574321742453190787e-01
1.574321742453190787e-01
1.574321742453190787e-01
1.490256018341612476e-01
1.490256018341612476e-01
1.574321742453190787e-01
1.574321742453190787e-01
1.574321742453190787e-01
1.528467711119602668e-01
1.528467711119602668e-01
1.513183034008406536e-01
1.513183034008406536e-01
1.513183034008406536e-01
1.589606419564386641e-01
1.589606419564386641e-01
1.681314482231562879e-01
1.681314482231562879e-01
1.681314482231562879e-01
1.666029805120366747e-01
1.666029805120366747e-01
1.539931218952999559e-01
1.539931218952999559e-01
1.539931218952999559e-01
1.616354604508979664e-01
1.616354604508979664e-01
1.666029805120366747e-01
1.666029805120366747e-01
1.666029805120366747e-01
1.620175773786778628e-01
1.620175773786778628e-01
1.536110049675200595e-01
1.536110049675200595e-01
1.536110049675200595e-01
1.520825372564004463e-01
1.520825372564004463e-01
1.581964081008788714e-01
1.581964081008788714e-01
1.581964081008788714e-01
1.601069927397783810e-01
1.601069927397783810e-01
1.627818112342376833e-01
1.627818112342376833e-01
1.627818112342376833e-01
1.574321742453190787e-01
1.574321742453190787e-01
1.490256018341612476e-01
1.490256018341612476e-01
1.490256018341612476e-01
1.513183034008406536e-01
1.513183034008406536e-01
1.559037065341994654e-01
1.559037065341994654e-01
1.559037065341994654e-01
1.658387466564768820e-01
1.658387466564768820e-01
1.620175773786778628e-01
1.620175773786778628e-01
1.620175773786778628e-01
1.482613679786014549e-01
1.482613679786014549e-01
1.455865494841421526e-01
1.455865494841421526e-01
1.455865494841421526e-01
1.490256018341612476e-01
1.490256018341612476e-01
1.612533435231180701e-01
1.612533435231180701e-01
1.612533435231180701e-01
1.513183034008406536e-01
1.513183034008406536e-01
1.559037065341994654e-01
1.559037065341994654e-01
1.559037065341994654e-01
1.432938479174627466e-01
1.432938479174627466e-01
1.471150171952617380e-01
1.471150171952617380e-01
1.471150171952617380e-01
1.555215896064195691e-01
1.555215896064195691e-01
1.478792510508215585e-01
1.478792510508215585e-01
1.478792510508215585e-01
1.463507833397019453e-01
1.463507833397019453e-01
1.406190294230034443e-01
1.406190294230034443e-01
1.406190294230034443e-01
1.459686664119220489e-01
1.459686664119220489e-01
1.486434849063813513e-01
1.486434849063813513e-01
1.486434849063813513e-01
1.562858234619793618e-01
1.562858234619793618e-01
1.474971341230416622e-01
1.474971341230416622e-01
1.474971341230416622e-01
1.528467711119602668e-01
1.528467711119602668e-01
1.429117309896828503e-01
1.429117309896828503e-01
1.429117309896828503e-01
1.398547955674436516e-01
1.398547955674436516e-01
1.440580817730225394e-01
1.440580817730225394e-01
1.440580817730225394e-01
1.555215896064195691e-01
1.555215896064195691e-01
1.497898356897210681e-01
1.497898356897210681e-01
1.497898356897210681e-01
1.463507833397019453e-01
1.463507833397019453e-01
1.440580817730225394e-01
1.440580817730225394e-01
1.440580817730225394e-01
1.532288880397401631e-01
1.532288880397401631e-01
1.471150171952617380e-01
1.471150171952617380e-01
1.471150171952617380e-01
1.490256018341612476e-01
1.490256018341612476e-01
1.440580817730225394e-01
1.440580817730225394e-01
1.440580817730225394e-01
1.413832632785632371e-01
1.413832632785632371e-01
1.364157432174245288e-01
1.364157432174245288e-01
1.364157432174245288e-01
1.501719526175009645e-01
1.501719526175009645e-01
1.463507833397019453e-01
1.463507833397019453e-01
1.463507833397019453e-01
1.337409247229652265e-01
1.337409247229652265e-01
1.352693924340848397e-01
1.352693924340848397e-01
1.352693924340848397e-01
1.440580817730225394e-01
1.440580817730225394e-01
1.379442109285441420e-01
1.379442109285441420e-01
1.379442109285441420e-01
1.455865494841421526e-01
1.455865494841421526e-01
1.402369124952235480e-01
1.402369124952235480e-01
1.402369124952235480e-01
1.517004203286205499e-01
1.517004203286205499e-01
1.348872755063049156e-01
1.348872755063049156e-01
1.348872755063049156e-01
1.402369124952235480e-01
1.402369124952235480e-01
1.314482231562858205e-01
1.314482231562858205e-01
1.291555215896064146e-01
1.291555215896064146e-01
1.291555215896064146e-01
1.402369124952235480e-01
1.402369124952235480e-01
1.410011463507833407e-01
1.410011463507833407e-01
1.410011463507833407e-01
1.379442109285441420e-01
1.379442109285441420e-01
1.268628200229270087e-01
1.268628200229270087e-01
1.268628200229270087e-01
1.452044325563622562e-01
1.452044325563622562e-01
1.471150171952617380e-01
1.471150171952617380e-01
1.471150171952617380e-01
1.371799770729843215e-01
1.371799770729843215e-01
1.257164692395873196e-01
1.257164692395873196e-01
1.257164692395873196e-01
1.410011463507833407e-01
1.410011463507833407e-01
1.448223156285823598e-01
1.448223156285823598e-01
1.448223156285823598e-01
1.467329002674818417e-01
1.467329002674818417e-01
1.478792510508215585e-01
1.478792510508215585e-01
1.478792510508215585e-01
1.478792510508215585e-01
1.478792510508215585e-01
1.364157432174245288e-01
1.364157432174245288e-01
1.364157432174245288e-01
1.455865494841421526e-01
1.455865494841421526e-01
1.474971341230416622e-01
1.474971341230416622e-01
1.474971341230416622e-01
1.467329002674818417e-01
1.467329002674818417e-01
1.581964081008788714e-01
1.581964081008788714e-01
1.581964081008788714e-01
1.578142911730989750e-01
1.578142911730989750e-01
1.574321742453190787e-01
1.574321742453190787e-01
1.574321742453190787e-01
1.700420328620557975e-01
1.700420328620557975e-01
1.746274359954146094e-01
1.746274359954146094e-01
1.746274359954146094e-01
1.708062667176155902e-01
1.708062667176155902e-01
1.711883836453954866e-01
1.711883836453954866e-01
1.711883836453954866e-01
1.830340084065724127e-01
1.830340084065724127e-01
1.880015284677111209e-01
1.880015284677111209e-01
1.880015284677111209e-01
2.044325563622468589e-01
2.044325563622468589e-01
1.994650363011081506e-01
1.994650363011081506e-01
1.994650363011081506e-01
2.048146732900267553e-01
2.048146732900267553e-01
2.231562858234619751e-01
2.231562858234619751e-01
2.231562858234619751e-01
2.231562858234619751e-01
2.231562858234619751e-01
2.220099350401222860e-01
2.220099350401222860e-01
2.220099350401222860e-01
2.277416889568207869e-01
2.277416889568207869e-01
2.330913259457393916e-01
2.330913259457393916e-01
2.330913259457393916e-01
2.403515475735575058e-01
2.403515475735575058e-01
2.583110431792128292e-01
2.583110431792128292e-01
2.583110431792128292e-01
2.651891478792510748e-01
2.651891478792510748e-01
2.705387848681696794e-01
2.705387848681696794e-01
2.705387848681696794e-01
2.697745510126098312e-01
2.697745510126098312e-01
2.831486434849063705e-01
2.831486434849063705e-01
2.831486434849063705e-01
2.735957202904088503e-01
2.735957202904088503e-01
2.976690867405425989e-01
2.976690867405425989e-01
2.976690867405425989e-01
2.980512036683224952e-01
2.980512036683224952e-01
2.991975544516621843e-01
2.991975544516621843e-01
2.991975544516621843e-01
3.121895299961788273e-01
3.121895299961788273e-01
3.186855177684371210e-01
3.186855177684371210e-01
3.186855177684371210e-01
3.213603362628964510e-01
3.213603362628964510e-01
3.259457393962552629e-01
3.259457393962552629e-01
3.259457393962552629e-01
3.175391669850974319e-01
3.175391669850974319e-01
3.286205578907145375e-01
3.286205578907145375e-01
3.286205578907145375e-01
3.240351547573557256e-01
3.240351547573557256e-01
3.335880779518532457e-01
3.335880779518532457e-01
3.335880779518532457e-01
3.374092472296522649e-01
3.374092472296522649e-01
3.377913641574321613e-01
3.377913641574321613e-01
3.377913641574321613e-01
3.347344287351929903e-01
3.347344287351929903e-01
3.431410011463507659e-01
3.431410011463507659e-01
3.431410011463507659e-01
3.484906381352693705e-01
3.484906381352693705e-01
3.473442873519296814e-01
3.473442873519296814e-01
3.473442873519296814e-01
3.423767672907909732e-01
3.423767672907909732e-01
3.515475735575085969e-01
3.515475735575085969e-01
3.515475735575085969e-01
3.530760412686281824e-01
3.530760412686281824e-01
3.488727550630492669e-01
3.488727550630492669e-01
3.488727550630492669e-01
3.572793274742070979e-01
3.572793274742070979e-01
3.591899121131066352e-01
3.591899121131066352e-01
3.591899121131066352e-01
3.576614444019869943e-01
3.576614444019869943e-01
3.691249522353840518e-01
3.691249522353840518e-01
3.691249522353840518e-01
3.748567061520825527e-01
3.748567061520825527e-01
3.649216660298051362e-01
3.649216660298051362e-01
3.649216660298051362e-01
3.630110813909055989e-01
3.630110813909055989e-01
3.763851738632021382e-01
3.763851738632021382e-01
3.763851738632021382e-01
3.668322506687046181e-01
3.668322506687046181e-01
3.588077951853266834e-01
3.588077951853266834e-01
3.588077951853266834e-01
3.771494077187619309e-01
3.771494077187619309e-01
3.649216660298051362e-01
3.649216660298051362e-01
3.649216660298051362e-01
3.687428353076040999e-01
3.687428353076040999e-01
3.641574321742453435e-01
3.641574321742453435e-01
3.641574321742453435e-01
3.760030569354222418e-01
3.760030569354222418e-01
3.645395491020252399e-01
3.645395491020252399e-01
3.645395491020252399e-01
3.641574321742453435e-01
3.641574321742453435e-01
3.786778754298815164e-01
3.786778754298815164e-01
3.645395491020252399e-01
3.645395491020252399e-01
3.645395491020252399e-01
3.672143675964845144e-01
3.672143675964845144e-01
3.782957585021016200e-01
3.782957585021016200e-01
3.782957585021016200e-01
3.668322506687046181e-01
3.668322506687046181e-01
3.733282384409629118e-01
3.733282384409629118e-01
3.733282384409629118e-01
3.653037829575850326e-01
3.653037829575850326e-01
3.656858998853649290e-01
3.656858998853649290e-01
3.656858998853649290e-01
3.698891860909438445e-01
3.698891860909438445e-01
3.744745892243026564e-01
3.744745892243026564e-01
3.744745892243026564e-01
3.717997707298433263e-01
3.717997707298433263e-01
3.771494077187619309e-01
3.771494077187619309e-01
3.771494077187619309e-01
3.813526939243408465e-01
3.813526939243408465e-01
3.714176538020634299e-01
3.714176538020634299e-01
3.714176538020634299e-01
3.817348108521207428e-01
3.817348108521207428e-01
3.805884600687810537e-01
3.805884600687810537e-01
3.805884600687810537e-01
3.756209400076423455e-01
3.756209400076423455e-01
3.702713030187237409e-01
3.702713030187237409e-01
3.702713030187237409e-01
3.721818876576232227e-01
3.721818876576232227e-01
3.729461215131830154e-01
3.729461215131830154e-01
3.729461215131830154e-01
3.775315246465418273e-01
3.775315246465418273e-01
3.809705769965609501e-01
3.809705769965609501e-01
3.809705769965609501e-01
3.683607183798242035e-01
3.683607183798242035e-01
3.706534199465036372e-01
3.706534199465036372e-01
3.706534199465036372e-01
3.763851738632021382e-01
3.763851738632021382e-01
3.721818876576232227e-01
3.721818876576232227e-01
3.721818876576232227e-01
3.779136415743217237e-01
3.779136415743217237e-01
3.802063431410011574e-01
3.802063431410011574e-01
3.802063431410011574e-01
3.737103553687428081e-01
3.737103553687428081e-01
3.672143675964845144e-01
3.672143675964845144e-01
3.672143675964845144e-01
3.840275124188001765e-01
3.840275124188001765e-01
3.760030569354222418e-01
3.760030569354222418e-01
3.760030569354222418e-01
3.630110813909055989e-01
3.630110813909055989e-01
3.653037829575850326e-01
3.653037829575850326e-01
3.653037829575850326e-01
3.725640045854031190e-01
3.725640045854031190e-01
3.614826136797860134e-01
3.614826136797860134e-01
3.614826136797860134e-01
3.664501337409247217e-01
3.664501337409247217e-01
3.580435613297668906e-01
3.580435613297668906e-01
3.580435613297668906e-01
3.549866259075277197e-01
3.549866259075277197e-01
3.477264042797095778e-01
3.477264042797095778e-01
3.477264042797095778e-01
3.496369889186091151e-01
3.496369889186091151e-01
3.599541459686664280e-01
3.599541459686664280e-01
3.599541459686664280e-01
3.431410011463507659e-01
3.431410011463507659e-01
3.439052350019105586e-01
3.439052350019105586e-01
3.439052350019105586e-01
3.461979365685899923e-01
3.461979365685899923e-01
3.423767672907909732e-01
3.423767672907909732e-01
3.423767672907909732e-01
3.366450133740924722e-01
3.366450133740924722e-01
3.377913641574321613e-01
3.377913641574321613e-01
3.377913641574321613e-01
3.354986625907527831e-01
3.354986625907527831e-01
3.354986625907527831e-01
3.354986625907527831e-01
3.354986625907527831e-01
3.225066870462361401e-01
3.225066870462361401e-01
3.255636224684753666e-01
3.255636224684753666e-01
3.255636224684753666e-01
3.114252961406190345e-01
3.114252961406190345e-01
3.225066870462361401e-01
3.225066870462361401e-01
3.225066870462361401e-01
3.091325945739396008e-01
3.091325945739396008e-01
3.102789453572793454e-01
3.102789453572793454e-01
3.102789453572793454e-01
3.186855177684371210e-01
3.186855177684371210e-01
3.106610622850592418e-01
3.106610622850592418e-01
3.106610622850592418e-01
3.014902560183416180e-01
3.014902560183416180e-01
2.930836836071837870e-01
2.930836836071837870e-01
2.930836836071837870e-01
2.999617883072220326e-01
2.999617883072220326e-01
3.034008406572410999e-01
3.034008406572410999e-01
3.034008406572410999e-01
2.999617883072220326e-01
2.999617883072220326e-01
2.827665265571264741e-01
2.827665265571264741e-01
2.827665265571264741e-01
2.797095911348873032e-01
2.797095911348873032e-01
2.862055789071455969e-01
2.862055789071455969e-01
2.862055789071455969e-01
2.831486434849063705e-01
2.831486434849063705e-01
2.839128773404661632e-01
2.839128773404661632e-01
2.839128773404661632e-01
2.728314864348490576e-01
2.728314864348490576e-01
2.804738249904470959e-01
2.804738249904470959e-01
2.804738249904470959e-01
2.793274742071073513e-01
2.793274742071073513e-01
2.693924340848299348e-01
2.693924340848299348e-01
2.693924340848299348e-01
2.709209017959495758e-01
2.709209017959495758e-01
2.609858616736721593e-01
2.609858616736721593e-01
2.609858616736721593e-01
2.632785632403515375e-01
2.632785632403515375e-01
2.701566679403897830e-01
2.701566679403897830e-01
2.701566679403897830e-01
2.636606801681314338e-01
2.636606801681314338e-01
2.583110431792128292e-01
2.583110431792128292e-01
2.583110431792128292e-01
2.541077569736339137e-01
2.541077569736339137e-01
2.644249140236912266e-01
2.644249140236912266e-01
2.644249140236912266e-01
2.556362246847535546e-01
2.556362246847535546e-01
2.621322124570118484e-01
2.621322124570118484e-01
2.621322124570118484e-01
2.663354986625907639e-01
2.663354986625907639e-01
2.586931601069927256e-01
2.586931601069927256e-01
2.586931601069927256e-01
2.586931601069927256e-01
2.586931601069927256e-01
2.537256400458540173e-01
2.537256400458540173e-01
2.483760030569354127e-01
2.483760030569354127e-01
2.483760030569354127e-01
2.445548337791364213e-01
2.445548337791364213e-01
2.533435231180741209e-01
2.533435231180741209e-01
2.533435231180741209e-01
2.579289262514329328e-01
2.579289262514329328e-01
2.430263660680168081e-01
2.430263660680168081e-01
2.430263660680168081e-01
2.537256400458540173e-01
2.537256400458540173e-01
2.380588460068780998e-01
2.380588460068780998e-01
2.380588460068780998e-01
2.510508215513947428e-01
2.510508215513947428e-01
2.567825754680932437e-01
2.567825754680932437e-01
2.567825754680932437e-01
2.464654184180359309e-01
2.464654184180359309e-01
2.399694306457776094e-01
2.399694306457776094e-01
2.399694306457776094e-01
2.346197936568590048e-01
2.346197936568590048e-01
2.361482613679785902e-01
2.361482613679785902e-01
2.361482613679785902e-01
2.403515475735575058e-01
2.403515475735575058e-01
2.437905999235766008e-01
2.437905999235766008e-01
2.437905999235766008e-01
2.327092090179594952e-01
2.327092090179594952e-01
2.273595720290408906e-01
2.273595720290408906e-01
2.273595720290408906e-01
2.384409629346579962e-01
2.384409629346579962e-01
2.414978983568972226e-01
2.414978983568972226e-01
2.414978983568972226e-01
2.281238058846006833e-01
2.281238058846006833e-01
2.380588460068780998e-01
2.380588460068780998e-01
2.380588460068780998e-01
2.254489873901413810e-01
2.254489873901413810e-01
2.315628582346198061e-01
2.315628582346198061e-01
2.315628582346198061e-01
2.216278181123423896e-01
2.216278181123423896e-01
2.342376767290791084e-01
2.342376767290791084e-01
2.342376767290791084e-01
2.200993504012227764e-01
2.200993504012227764e-01
2.208635842567825691e-01
2.208635842567825691e-01
2.208635842567825691e-01
2.258311043179212774e-01
2.258311043179212774e-01
2.174245319067634741e-01
2.174245319067634741e-01
2.174245319067634741e-01
2.109285441345051526e-01
2.109285441345051526e-01
2.132212457011845586e-01
2.132212457011845586e-01
2.132212457011845586e-01
2.227741688956820787e-01
2.227741688956820787e-01
2.132212457011845586e-01
2.132212457011845586e-01
2.132212457011845586e-01
2.094000764233855671e-01
2.094000764233855671e-01
2.200993504012227764e-01
2.200993504012227764e-01
2.200993504012227764e-01
2.109285441345051526e-01
2.109285441345051526e-01
2.185708826901031632e-01
2.185708826901031632e-01
2.185708826901031632e-01
2.074894917844860576e-01
2.074894917844860576e-01
2.048146732900267553e-01
2.048146732900267553e-01
2.048146732900267553e-01
2.124570118456247658e-01
2.124570118456247658e-01
2.063431410011463407e-01
2.063431410011463407e-01
2.063431410011463407e-01
2.002292701566679434e-01
2.002292701566679434e-01
2.044325563622468589e-01
2.044325563622468589e-01
2.044325563622468589e-01
2.116927779900649731e-01
2.116927779900649731e-01
1.933511654566297255e-01
1.933511654566297255e-01
1.933511654566297255e-01
2.071073748567061612e-01
2.071073748567061612e-01
2.078716087122659539e-01
2.078716087122659539e-01
2.078716087122659539e-01
1.967902178066488483e-01
1.967902178066488483e-01
1.872372946121513282e-01
1.872372946121513282e-01
1.872372946121513282e-01
1.975544516622086411e-01
1.975544516622086411e-01
1.906763469621704232e-01
1.906763469621704232e-01
1.906763469621704232e-01
1.983186855177684338e-01
1.983186855177684338e-01
1.864730607565915077e-01
1.864730607565915077e-01
1.864730607565915077e-01
1.902942300343905269e-01
1.902942300343905269e-01
1.918226977455101123e-01
1.918226977455101123e-01
1.918226977455101123e-01
1.880015284677111209e-01
1.880015284677111209e-01
1.948796331677493388e-01
1.948796331677493388e-01
1.948796331677493388e-01
1.830340084065724127e-01
1.830340084065724127e-01
1.784486052732136008e-01
1.784486052732136008e-01
1.784486052732136008e-01
1.746274359954146094e-01
1.746274359954146094e-01
1.803591899121131104e-01
1.803591899121131104e-01
1.803591899121131104e-01
1.765380206343140912e-01
1.765380206343140912e-01
1.826518914787925163e-01
1.826518914787925163e-01
1.826518914787925163e-01
1.837982422621322054e-01
1.837982422621322054e-01
1.822697745510126199e-01
1.822697745510126199e-01
1.822697745510126199e-01
1.734810852120748925e-01
1.734810852120748925e-01
1.845624761176920259e-01
1.845624761176920259e-01
1.845624761176920259e-01
1.658387466564768820e-01
1.658387466564768820e-01
1.765380206343140912e-01
1.765380206343140912e-01
1.765380206343140912e-01
1.834161253343523090e-01
1.834161253343523090e-01
1.761559037065341948e-01
1.761559037065341948e-01
1.761559037065341948e-01
1.761559037065341948e-01
1.761559037065341948e-01
1.673672143675964952e-01
1.673672143675964952e-01
1.673672143675964952e-01
1.696599159342759011e-01
1.696599159342759011e-01
1.646923958731371929e-01
1.646923958731371929e-01
1.646923958731371929e-01
1.677493312953763915e-01
1.677493312953763915e-01
1.807413068398930067e-01
1.807413068398930067e-01
1.807413068398930067e-01
1.727168513565150998e-01
1.727168513565150998e-01
1.700420328620557975e-01
1.700420328620557975e-01
1.757737867787542985e-01
1.757737867787542985e-01
1.757737867787542985e-01
1.608712265953381737e-01
1.608712265953381737e-01
1.708062667176155902e-01
1.708062667176155902e-01
1.708062667176155902e-01
1.666029805120366747e-01
1.666029805120366747e-01
1.715705005731753829e-01
1.715705005731753829e-01
1.715705005731753829e-01
1.547573557508597764e-01
1.547573557508597764e-01
1.681314482231562879e-01
1.681314482231562879e-01
1.681314482231562879e-01
1.669850974398165711e-01
1.669850974398165711e-01
1.711883836453954866e-01
1.711883836453954866e-01
1.711883836453954866e-01
1.708062667176155902e-01
1.708062667176155902e-01
1.543752388230798522e-01
1.543752388230798522e-01
1.543752388230798522e-01
1.562858234619793618e-01
1.562858234619793618e-01
1.604891096675582773e-01
1.604891096675582773e-01
1.604891096675582773e-01
1.513183034008406536e-01
1.513183034008406536e-01
1.597248758119984846e-01
1.597248758119984846e-01
1.597248758119984846e-01
1.497898356897210681e-01
1.497898356897210681e-01
1.627818112342376833e-01
1.627818112342376833e-01
1.627818112342376833e-01
1.673672143675964952e-01
1.673672143675964952e-01
1.532288880397401631e-01
1.532288880397401631e-01
1.532288880397401631e-01
1.635460450897974760e-01
1.635460450897974760e-01
1.497898356897210681e-01
1.497898356897210681e-01
1.497898356897210681e-01
1.635460450897974760e-01
1.635460450897974760e-01
1.631639281620175796e-01
1.631639281620175796e-01
1.631639281620175796e-01
1.639281620175773724e-01
1.639281620175773724e-01
1.528467711119602668e-01
1.528467711119602668e-01
1.528467711119602668e-01
1.494077187619411440e-01
1.494077187619411440e-01
1.497898356897210681e-01
1.497898356897210681e-01
1.497898356897210681e-01
1.497898356897210681e-01
1.497898356897210681e-01
1.627818112342376833e-01
1.627818112342376833e-01
1.627818112342376833e-01
1.589606419564386641e-01
1.589606419564386641e-01
1.528467711119602668e-01
1.528467711119602668e-01
1.528467711119602668e-01
1.486434849063813513e-01
1.486434849063813513e-01
1.627818112342376833e-01
1.627818112342376833e-01
1.627818112342376833e-01
1.623996943064577869e-01
1.623996943064577869e-01
1.474971341230416622e-01
1.474971341230416622e-01
1.474971341230416622e-01
1.501719526175009645e-01
1.501719526175009645e-01
1.543752388230798522e-01
1.543752388230798522e-01
1.543752388230798522e-01
1.555215896064195691e-01
1.555215896064195691e-01
1.623996943064577869e-01
1.623996943064577869e-01
1.623996943064577869e-01
1.517004203286205499e-01
1.517004203286205499e-01
1.486434849063813513e-01
1.486434849063813513e-01
1.486434849063813513e-01
1.612533435231180701e-01
1.612533435231180701e-01
1.551394726786396727e-01
1.551394726786396727e-01
1.551394726786396727e-01
1.463507833397019453e-01
1.463507833397019453e-01
1.524646541841803704e-01
1.524646541841803704e-01
1.524646541841803704e-01
1.406190294230034443e-01
1.406190294230034443e-01
1.432938479174627466e-01
1.432938479174627466e-01
1.432938479174627466e-01
1.444401987008024357e-01
1.444401987008024357e-01
1.494077187619411440e-01
1.494077187619411440e-01
1.494077187619411440e-01
1.390905617118838311e-01
1.390905617118838311e-01
1.585785250286587678e-01
1.585785250286587678e-01
1.585785250286587678e-01
1.574321742453190787e-01
1.574321742453190787e-01
1.444401987008024357e-01
1.444401987008024357e-01
1.444401987008024357e-01
1.455865494841421526e-01
1.455865494841421526e-01
1.444401987008024357e-01
1.444401987008024357e-01
1.444401987008024357e-01
1.425296140619029539e-01
1.425296140619029539e-01
1.562858234619793618e-01
1.562858234619793618e-01
1.562858234619793618e-01
1.482613679786014549e-01
1.482613679786014549e-01
1.413832632785632371e-01
1.413832632785632371e-01
1.413832632785632371e-01
1.318303400840657169e-01
1.318303400840657169e-01
1.555215896064195691e-01
1.555215896064195691e-01
1.555215896064195691e-01
1.375620940007642456e-01
1.375620940007642456e-01
1.360336262896446324e-01
1.360336262896446324e-01
1.360336262896446324e-01
1.379442109285441420e-01
1.379442109285441420e-01
1.352693924340848397e-01
1.352693924340848397e-01
1.352693924340848397e-01
1.452044325563622562e-01
1.452044325563622562e-01
1.429117309896828503e-01
1.429117309896828503e-01
1.429117309896828503e-01
1.402369124952235480e-01
1.402369124952235480e-01
1.471150171952617380e-01
1.471150171952617380e-01
1.471150171952617380e-01
1.364157432174245288e-01
1.364157432174245288e-01
1.482613679786014549e-01
1.482613679786014549e-01
1.482613679786014549e-01
1.413832632785632371e-01
1.413832632785632371e-01
1.322124570118456133e-01
1.322124570118456133e-01
1.322124570118456133e-01
1.497898356897210681e-01
1.497898356897210681e-01
1.490256018341612476e-01
1.490256018341612476e-01
1.490256018341612476e-01
1.310661062285059242e-01
1.310661062285059242e-01
1.360336262896446324e-01
1.360336262896446324e-01
1.360336262896446324e-01
1.345051585785250192e-01
1.345051585785250192e-01
1.306839893007260278e-01
1.306839893007260278e-01
1.306839893007260278e-01
1.398547955674436516e-01
1.398547955674436516e-01
1.398547955674436516e-01
1.398547955674436516e-01
1.287734046618265182e-01
1.287734046618265182e-01
1.287734046618265182e-01
1.283912877340466219e-01
1.283912877340466219e-01
1.280091708062667255e-01
1.280091708062667255e-01
1.280091708062667255e-01
1.333588077951853301e-01
1.333588077951853301e-01
1.352693924340848397e-01
1.352693924340848397e-01
1.352693924340848397e-01
1.322124570118456133e-01
1.322124570118456133e-01
1.402369124952235480e-01
1.402369124952235480e-01
1.402369124952235480e-01
1.379442109285441420e-01
1.379442109285441420e-01
1.360336262896446324e-01
1.360336262896446324e-01
1.360336262896446324e-01
1.394726786396637275e-01
1.394726786396637275e-01
1.348872755063049156e-01
1.348872755063049156e-01
1.348872755063049156e-01
1.268628200229270087e-01
1.268628200229270087e-01
1.295376385173863110e-01
1.295376385173863110e-01
1.295376385173863110e-01
1.463507833397019453e-01
1.463507833397019453e-01
1.333588077951853301e-01
1.333588077951853301e-01
1.333588077951853301e-01
1.394726786396637275e-01
1.394726786396637275e-01
1.322124570118456133e-01
1.322124570118456133e-01
1.322124570118456133e-01
1.379442109285441420e-01
1.379442109285441420e-01
1.379442109285441420e-01
1.379442109285441420e-01
1.379442109285441420e-01
1.429117309896828503e-01
1.429117309896828503e-01
1.509361864730607572e-01
1.509361864730607572e-01
1.509361864730607572e-01
1.555215896064195691e-01
1.555215896064195691e-01
1.497898356897210681e-01
1.497898356897210681e-01
1.497898356897210681e-01
1.730989682842949962e-01
1.730989682842949962e-01
1.704241497898356938e-01
1.704241497898356938e-01
1.704241497898356938e-01
1.616354604508979664e-01
1.616354604508979664e-01
1.681314482231562879e-01
1.681314482231562879e-01
1.681314482231562879e-01
1.837982422621322054e-01
1.837982422621322054e-01
1.750095529231945057e-01
1.750095529231945057e-01
1.750095529231945057e-01
1.818876576232326958e-01
1.818876576232326958e-01
1.902942300343905269e-01
1.902942300343905269e-01
1.902942300343905269e-01
1.983186855177684338e-01
1.983186855177684338e-01
2.021398547955674529e-01
2.021398547955674529e-01
2.021398547955674529e-01
2.166602980512036813e-01
2.166602980512036813e-01
2.178066488345433704e-01
2.178066488345433704e-01
2.178066488345433704e-01
2.208635842567825691e-01
2.208635842567825691e-01
2.418800152846771190e-01
2.418800152846771190e-01
2.418800152846771190e-01
2.307986243790599856e-01
2.307986243790599856e-01
2.457011845624761104e-01
2.457011845624761104e-01
2.457011845624761104e-01
2.441727168513565249e-01
2.441727168513565249e-01
2.659533817348108675e-01
2.659533817348108675e-01
2.659533817348108675e-01
2.663354986625907639e-01
2.663354986625907639e-01
2.709209017959495758e-01
2.709209017959495758e-01
2.709209017959495758e-01
2.655712648070309712e-01
2.655712648070309712e-01
2.777990064959877659e-01
2.777990064959877659e-01
2.777990064959877659e-01
2.846771111960260114e-01
2.846771111960260114e-01
2.984333205961023916e-01
2.984333205961023916e-01
2.984333205961023916e-01
3.072220099350401190e-01
3.072220099350401190e-01
3.106610622850592418e-01
3.106610622850592418e-01
3.106610622850592418e-01
2.995796713794421362e-01
2.995796713794421362e-01
3.056935422239205336e-01
3.056935422239205336e-01
3.056935422239205336e-01
3.083683607183798081e-01
3.083683607183798081e-01
3.267099732518150557e-01
3.267099732518150557e-01
3.267099732518150557e-01
3.183034008406572246e-01
3.183034008406572246e-01
3.198318685517768656e-01
3.198318685517768656e-01
3.198318685517768656e-01
3.270920901795949520e-01
3.270920901795949520e-01
3.301490256018341785e-01
3.301490256018341785e-01
3.301490256018341785e-01
3.335880779518532457e-01
3.335880779518532457e-01
3.381734810852120576e-01
3.381734810852120576e-01
3.381734810852120576e-01
3.351165456629728867e-01
3.351165456629728867e-01
3.427588842185708695e-01
3.427588842185708695e-01
3.427588842185708695e-01
3.458158196408100959e-01
3.458158196408100959e-01
3.538402751241879751e-01
3.538402751241879751e-01
3.538402751241879751e-01
3.435231180741306622e-01
3.435231180741306622e-01
3.565150936186473052e-01
3.565150936186473052e-01
3.565150936186473052e-01
3.408482995796713877e-01
3.408482995796713877e-01
3.484906381352693705e-01
3.484906381352693705e-01
3.484906381352693705e-01
3.641574321742453435e-01
3.641574321742453435e-01
3.568972105464272015e-01
3.568972105464272015e-01
3.568972105464272015e-01
3.664501337409247217e-01
3.664501337409247217e-01
3.611004967520061171e-01
3.611004967520061171e-01
3.611004967520061171e-01
3.721818876576232227e-01
3.721818876576232227e-01
3.614826136797860134e-01
3.614826136797860134e-01
3.614826136797860134e-01
3.618647306075659098e-01
3.618647306075659098e-01
3.748567061520825527e-01
3.748567061520825527e-01
3.748567061520825527e-01
3.668322506687046181e-01
3.668322506687046181e-01
3.668322506687046181e-01
3.668322506687046181e-01
3.668322506687046181e-01
3.691249522353840518e-01
3.691249522353840518e-01
3.637753152464653916e-01
3.637753152464653916e-01
3.637753152464653916e-01
3.798242262132212610e-01
3.798242262132212610e-01
3.752388230798624491e-01
3.752388230798624491e-01
3.752388230798624491e-01
3.675964845242644108e-01
3.675964845242644108e-01
3.767672907909820346e-01
3.767672907909820346e-01
3.664501337409247217e-01
3.664501337409247217e-01
3.664501337409247217e-01
3.844096293465800729e-01
3.844096293465800729e-01
3.706534199465036372e-01
3.706534199465036372e-01
3.706534199465036372e-01
3.752388230798624491e-01
3.752388230798624491e-01
3.672143675964845144e-01
3.672143675964845144e-01
3.672143675964845144e-01
3.683607183798242035e-01
3.683607183798242035e-01
3.679786014520443072e-01
3.679786014520443072e-01
3.679786014520443072e-01
3.717997707298433263e-01
3.717997707298433263e-01
3.687428353076040999e-01
3.687428353076040999e-01
3.687428353076040999e-01
3.706534199465036372e-01
3.706534199465036372e-01
3.691249522353840518e-01
3.691249522353840518e-01
3.691249522353840518e-01
3.744745892243026564e-01
3.744745892243026564e-01
3.740924722965227600e-01
3.740924722965227600e-01
3.740924722965227600e-01
3.756209400076423455e-01
3.756209400076423455e-01
3.702713030187237409e-01
3.702713030187237409e-01
3.702713030187237409e-01
3.691249522353840518e-01
3.691249522353840518e-01
3.672143675964845144e-01
3.672143675964845144e-01
3.672143675964845144e-01
3.756209400076423455e-01
3.756209400076423455e-01
3.737103553687428081e-01
3.737103553687428081e-01
3.737103553687428081e-01
3.798242262132212610e-01
3.798242262132212610e-01
3.802063431410011574e-01
3.802063431410011574e-01
3.802063431410011574e-01
3.687428353076040999e-01
3.687428353076040999e-01
3.821169277799006392e-01
3.821169277799006392e-01
3.821169277799006392e-01
3.824990447076805355e-01
3.824990447076805355e-01
3.729461215131830154e-01
3.729461215131830154e-01
3.729461215131830154e-01
3.740924722965227600e-01
3.740924722965227600e-01
3.656858998853649290e-01
3.656858998853649290e-01
3.656858998853649290e-01
3.702713030187237409e-01
3.702713030187237409e-01
3.771494077187619309e-01
3.771494077187619309e-01
3.771494077187619309e-01
3.721818876576232227e-01
3.721818876576232227e-01
3.782957585021016200e-01
3.782957585021016200e-01
3.782957585021016200e-01
3.790599923576614683e-01
3.790599923576614683e-01
3.763851738632021382e-01
3.763851738632021382e-01
3.763851738632021382e-01
3.737103553687428081e-01
3.737103553687428081e-01
3.660680168131448253e-01
3.660680168131448253e-01
3.660680168131448253e-01
3.706534199465036372e-01
3.706534199465036372e-01
3.595720290408865316e-01
3.595720290408865316e-01
3.595720290408865316e-01
3.656858998853649290e-01
3.656858998853649290e-01
3.683607183798242035e-01
3.683607183798242035e-01
3.683607183798242035e-01
3.706534199465036372e-01
3.706534199465036372e-01
3.568972105464272015e-01
3.568972105464272015e-01
3.568972105464272015e-01
3.534581581964080788e-01
3.534581581964080788e-01
3.461979365685899923e-01
3.461979365685899923e-01
3.461979365685899923e-01
3.439052350019105586e-01
3.439052350019105586e-01
3.454337027130301996e-01
3.454337027130301996e-01
3.454337027130301996e-01
3.381734810852120576e-01
3.381734810852120576e-01
3.354986625907527831e-01
3.354986625907527831e-01
3.354986625907527831e-01
3.366450133740924722e-01
3.366450133740924722e-01
3.274742071073748484e-01
3.274742071073748484e-01
3.274742071073748484e-01
3.404661826518914913e-01
3.404661826518914913e-01
3.297669086740542821e-01
3.297669086740542821e-01
3.297669086740542821e-01
3.228888039740160365e-01
3.228888039740160365e-01
3.217424531906763474e-01
3.217424531906763474e-01
3.217424531906763474e-01
3.232709209017959329e-01
3.232709209017959329e-01
3.091325945739396008e-01
3.091325945739396008e-01
3.091325945739396008e-01
3.148643484906381573e-01
3.148643484906381573e-01
3.053114252961406372e-01
3.053114252961406372e-01
3.053114252961406372e-01
3.114252961406190345e-01
3.114252961406190345e-01
3.030187237294612035e-01
3.030187237294612035e-01
3.030187237294612035e-01
3.018723729461215144e-01
3.018723729461215144e-01
2.949942682460833243e-01
2.949942682460833243e-01
2.949942682460833243e-01
3.014902560183416180e-01
3.014902560183416180e-01
2.965227359572029098e-01
2.965227359572029098e-01
2.965227359572029098e-01
2.907909820405044088e-01
2.907909820405044088e-01
2.797095911348873032e-01
2.797095911348873032e-01
2.797095911348873032e-01
2.781811234237676622e-01
2.781811234237676622e-01
2.858234619793657005e-01
2.858234619793657005e-01
2.858234619793657005e-01
2.835307604126862668e-01
2.835307604126862668e-01
2.797095911348873032e-01
2.797095911348873032e-01
2.797095911348873032e-01
2.724493695070691612e-01
2.724493695070691612e-01
2.831486434849063705e-01
2.831486434849063705e-01
2.831486434849063705e-01
2.781811234237676622e-01
2.781811234237676622e-01
2.732136033626289540e-01
2.732136033626289540e-01
2.732136033626289540e-01
2.728314864348490576e-01
2.728314864348490576e-01
2.678639663737103493e-01
2.678639663737103493e-01
2.678639663737103493e-01
2.720672525792892649e-01
2.720672525792892649e-01
2.747420710737485394e-01
2.747420710737485394e-01
2.747420710737485394e-01
2.586931601069927256e-01
2.586931601069927256e-01
2.613679786014520556e-01
2.613679786014520556e-01
2.613679786014520556e-01
2.586931601069927256e-01
2.586931601069927256e-01
2.628964463125716411e-01
2.628964463125716411e-01
2.613679786014520556e-01
2.613679786014520556e-01
2.613679786014520556e-01
2.651891478792510748e-01
2.651891478792510748e-01
2.564004585403133474e-01
2.564004585403133474e-01
2.564004585403133474e-01
2.514329384791746391e-01
2.514329384791746391e-01
2.575468093236530365e-01
2.575468093236530365e-01
2.575468093236530365e-01
2.510508215513947428e-01
2.510508215513947428e-01
2.621322124570118484e-01
2.621322124570118484e-01
2.621322124570118484e-01
2.445548337791364213e-01
2.445548337791364213e-01
2.479938861291555163e-01
2.479938861291555163e-01
2.479938861291555163e-01
2.575468093236530365e-01
2.575468093236530365e-01
2.514329384791746391e-01
2.514329384791746391e-01
2.514329384791746391e-01
2.491402369124952332e-01
2.491402369124952332e-01
2.506687046236148464e-01
2.506687046236148464e-01
2.506687046236148464e-01
2.464654184180359309e-01
2.464654184180359309e-01
2.468475353458158272e-01
2.468475353458158272e-01
2.468475353458158272e-01
2.499044707680550259e-01
2.499044707680550259e-01
2.449369507069163177e-01
2.449369507069163177e-01
2.449369507069163177e-01
2.453190676346962140e-01
2.453190676346962140e-01
2.357661444401986939e-01
2.357661444401986939e-01
2.357661444401986939e-01
2.311807413068398820e-01
2.311807413068398820e-01
2.388230798624378926e-01
2.388230798624378926e-01
2.388230798624378926e-01
2.307986243790599856e-01
2.307986243790599856e-01
2.376767290790982035e-01
2.376767290790982035e-01
2.376767290790982035e-01
2.411157814291172985e-01
2.411157814291172985e-01
2.327092090179594952e-01
2.327092090179594952e-01
2.327092090179594952e-01
2.369124952235384107e-01
2.369124952235384107e-01
2.220099350401222860e-01
2.220099350401222860e-01
2.220099350401222860e-01
2.323270920901795988e-01
2.323270920901795988e-01
2.197172334734428800e-01
2.197172334734428800e-01
2.197172334734428800e-01
2.262132212457011737e-01
2.262132212457011737e-01
2.174245319067634741e-01
2.174245319067634741e-01
2.174245319067634741e-01
2.178066488345433704e-01
2.178066488345433704e-01
2.223920519679021823e-01
2.223920519679021823e-01
2.223920519679021823e-01
2.246847535345815883e-01
2.246847535345815883e-01
2.193351165456629837e-01
2.193351165456629837e-01
2.193351165456629837e-01
2.246847535345815883e-01
2.246847535345815883e-01
2.243026366068016919e-01
2.243026366068016919e-01
2.243026366068016919e-01
2.105464272067252562e-01
2.105464272067252562e-01
2.074894917844860576e-01
2.074894917844860576e-01
2.074894917844860576e-01
2.094000764233855671e-01
2.094000764233855671e-01
2.082537256400458503e-01
2.082537256400458503e-01
2.082537256400458503e-01
2.155139472678639645e-01
2.155139472678639645e-01
2.036683225066870384e-01
2.036683225066870384e-01
2.036683225066870384e-01
2.051967902178066516e-01
2.051967902178066516e-01
2.017577378677875566e-01
2.017577378677875566e-01
2.017577378677875566e-01
2.013756209400076325e-01
2.013756209400076325e-01
2.116927779900649731e-01
2.116927779900649731e-01
2.116927779900649731e-01
2.097821933511654635e-01
2.097821933511654635e-01
1.952617500955292351e-01
1.952617500955292351e-01
1.952617500955292351e-01
2.059610240733664444e-01
2.059610240733664444e-01
1.952617500955292351e-01
1.952617500955292351e-01
1.952617500955292351e-01
1.983186855177684338e-01
1.983186855177684338e-01
2.044325563622468589e-01
2.044325563622468589e-01
2.044325563622468589e-01
1.880015284677111209e-01
1.880015284677111209e-01
1.998471532288880470e-01
1.998471532288880470e-01
1.998471532288880470e-01
1.975544516622086411e-01
1.975544516622086411e-01
1.822697745510126199e-01
1.822697745510126199e-01
1.822697745510126199e-01
1.960259839510890278e-01
1.960259839510890278e-01
1.822697745510126199e-01
1.822697745510126199e-01
1.822697745510126199e-01
1.967902178066488483e-01
1.967902178066488483e-01
1.792128391287733935e-01
1.792128391287733935e-01
1.792128391287733935e-01
1.914405808177302160e-01
1.914405808177302160e-01
1.979365685899885374e-01
1.979365685899885374e-01
1.979365685899885374e-01
1.807413068398930067e-01
1.807413068398930067e-01
1.845624761176920259e-01
1.845624761176920259e-01
1.845624761176920259e-01
1.765380206343140912e-01
1.765380206343140912e-01
1.868551776843714041e-01
1.868551776843714041e-01
1.868551776843714041e-01
1.803591899121131104e-01
1.803591899121131104e-01
1.826518914787925163e-01
1.826518914787925163e-01
1.826518914787925163e-01
1.830340084065724127e-01
1.830340084065724127e-01
1.902942300343905269e-01
1.902942300343905269e-01
1.902942300343905269e-01
1.677493312953763915e-01
1.677493312953763915e-01
1.853267099732518186e-01
1.853267099732518186e-01
1.853267099732518186e-01
1.761559037065341948e-01
1.761559037065341948e-01
1.750095529231945057e-01
1.750095529231945057e-01
1.750095529231945057e-01
1.837982422621322054e-01
1.837982422621322054e-01
1.658387466564768820e-01
1.658387466564768820e-01
1.658387466564768820e-01
1.604891096675582773e-01
1.604891096675582773e-01
1.662208635842567783e-01
1.662208635842567783e-01
1.662208635842567783e-01
1.669850974398165711e-01
1.669850974398165711e-01
1.654566297286969856e-01
1.654566297286969856e-01
1.654566297286969856e-01
1.673672143675964952e-01
1.673672143675964952e-01
1.688956820787160806e-01
1.688956820787160806e-01
1.574321742453190787e-01
1.574321742453190787e-01
1.574321742453190787e-01
1.608712265953381737e-01
1.608712265953381737e-01
1.597248758119984846e-01
1.597248758119984846e-01
1.597248758119984846e-01
1.669850974398165711e-01
1.669850974398165711e-01
1.688956820787160806e-01
1.688956820787160806e-01
1.688956820787160806e-01
1.692777990064959770e-01
1.692777990064959770e-01
1.746274359954146094e-01
1.746274359954146094e-01
1.746274359954146094e-01
1.574321742453190787e-01
1.574321742453190787e-01
1.566679403897592582e-01
1.566679403897592582e-01
1.566679403897592582e-01
1.532288880397401631e-01
1.532288880397401631e-01
1.700420328620557975e-01
1.700420328620557975e-01
1.700420328620557975e-01
1.585785250286587678e-01
1.585785250286587678e-01
1.635460450897974760e-01
1.635460450897974760e-01
1.635460450897974760e-01
1.505540695452808608e-01
1.505540695452808608e-01
1.505540695452808608e-01
1.505540695452808608e-01
1.505540695452808608e-01
1.490256018341612476e-01
1.490256018341612476e-01
1.612533435231180701e-01
1.612533435231180701e-01
1.612533435231180701e-01
1.559037065341994654e-01
1.559037065341994654e-01
1.578142911730989750e-01
1.578142911730989750e-01
1.578142911730989750e-01
1.520825372564004463e-01
1.520825372564004463e-01
1.520825372564004463e-01
1.520825372564004463e-01
1.520825372564004463e-01
1.459686664119220489e-01
1.459686664119220489e-01
1.547573557508597764e-01
1.547573557508597764e-01
1.547573557508597764e-01
1.620175773786778628e-01
1.620175773786778628e-01
1.643102789453572687e-01
1.643102789453572687e-01
1.643102789453572687e-01
1.471150171952617380e-01
1.471150171952617380e-01
1.474971341230416622e-01
1.474971341230416622e-01
1.474971341230416622e-01
1.436759648452426430e-01
1.436759648452426430e-01
1.627818112342376833e-01
1.627818112342376833e-01
1.627818112342376833e-01
1.436759648452426430e-01
1.436759648452426430e-01
1.623996943064577869e-01
1.623996943064577869e-01
1.623996943064577869e-01
1.459686664119220489e-01
1.459686664119220489e-01
1.455865494841421526e-01
1.455865494841421526e-01
1.455865494841421526e-01
1.486434849063813513e-01
1.486434849063813513e-01
1.612533435231180701e-01
1.612533435231180701e-01
1.612533435231180701e-01
1.425296140619029539e-01
1.425296140619029539e-01
1.429117309896828503e-01
1.429117309896828503e-01
1.429117309896828503e-01
1.517004203286205499e-01
1.517004203286205499e-01
1.547573557508597764e-01
1.547573557508597764e-01
1.547573557508597764e-01
1.513183034008406536e-01
1.513183034008406536e-01
1.432938479174627466e-01
1.432938479174627466e-01
1.432938479174627466e-01
1.547573557508597764e-01
1.547573557508597764e-01
1.452044325563622562e-01
1.452044325563622562e-01
1.452044325563622562e-01
1.474971341230416622e-01
1.474971341230416622e-01
1.440580817730225394e-01
1.440580817730225394e-01
1.440580817730225394e-01
1.398547955674436516e-01
1.398547955674436516e-01
1.429117309896828503e-01
1.429117309896828503e-01
1.429117309896828503e-01
1.528467711119602668e-01
1.528467711119602668e-01
1.440580817730225394e-01
1.440580817730225394e-01
1.440580817730225394e-01
1.559037065341994654e-01
1.559037065341994654e-01
1.410011463507833407e-01
1.410011463507833407e-01
1.410011463507833407e-01
1.371799770729843215e-01
1.371799770729843215e-01
1.513183034008406536e-01
1.513183034008406536e-01
1.513183034008406536e-01
1.367978601452044252e-01
1.367978601452044252e-01
1.425296140619029539e-01
1.425296140619029539e-01
1.425296140619029539e-01
1.367978601452044252e-01
1.367978601452044252e-01
1.432938479174627466e-01
1.432938479174627466e-01
1.432938479174627466e-01
1.444401987008024357e-01
1.444401987008024357e-01
1.432938479174627466e-01
1.432938479174627466e-01
1.432938479174627466e-01
1.379442109285441420e-01
1.379442109285441420e-01
1.364157432174245288e-01
1.364157432174245288e-01
1.364157432174245288e-01
1.383263278563240384e-01
1.383263278563240384e-01
1.501719526175009645e-01
1.501719526175009645e-01
1.501719526175009645e-01
1.367978601452044252e-01
1.367978601452044252e-01
1.314482231562858205e-01
1.314482231562858205e-01
1.314482231562858205e-01
1.333588077951853301e-01
1.333588077951853301e-01
1.478792510508215585e-01
1.478792510508215585e-01
1.478792510508215585e-01
1.337409247229652265e-01
1.337409247229652265e-01
1.341230416507451229e-01
1.341230416507451229e-01
1.341230416507451229e-01
1.459686664119220489e-01
1.459686664119220489e-01
1.467329002674818417e-01
1.467329002674818417e-01
1.467329002674818417e-01
1.322124570118456133e-01
1.322124570118456133e-01
1.459686664119220489e-01
1.459686664119220489e-01
1.459686664119220489e-01
1.291555215896064146e-01
1.291555215896064146e-01
1.486434849063813513e-01
1.486434849063813513e-01
1.486434849063813513e-01
1.348872755063049156e-01
1.348872755063049156e-01
1.272449369507069050e-01
1.272449369507069050e-01
1.272449369507069050e-01
1.421474971341230298e-01
1.421474971341230298e-01
1.410011463507833407e-01
1.410011463507833407e-01
1.410011463507833407e-01
1.276270538784868291e-01
1.276270538784868291e-01
1.474971341230416622e-01
1.474971341230416622e-01
1.425296140619029539e-01
1.425296140619029539e-01
1.425296140619029539e-01
1.402369124952235480e-01
1.402369124952235480e-01
1.348872755063049156e-01
1.348872755063049156e-01
1.348872755063049156e-01
1.245701184562476166e-01
1.245701184562476166e-01
1.345051585785250192e-01
1.345051585785250192e-01
1.345051585785250192e-01
1.371799770729843215e-01
1.371799770729843215e-01
1.367978601452044252e-01
1.367978601452044252e-01
1.367978601452044252e-01
1.295376385173863110e-01
1.295376385173863110e-01
1.421474971341230298e-01
1.421474971341230298e-01
1.421474971341230298e-01
1.241880015284677063e-01
1.241880015284677063e-01
1.322124570118456133e-01
1.322124570118456133e-01
1.322124570118456133e-01
1.478792510508215585e-01
1.478792510508215585e-01
1.413832632785632371e-01
1.413832632785632371e-01
1.413832632785632371e-01
1.318303400840657169e-01
1.318303400840657169e-01
1.345051585785250192e-01
1.345051585785250192e-01
1.345051585785250192e-01
1.413832632785632371e-01
1.413832632785632371e-01
1.413832632785632371e-01
1.413832632785632371e-01
1.413832632785632371e-01
1.371799770729843215e-01
1.371799770729843215e-01
1.474971341230416622e-01
1.474971341230416622e-01
1.474971341230416622e-01
1.348872755063049156e-01
1.348872755063049156e-01
1.452044325563622562e-01
1.452044325563622562e-01
1.452044325563622562e-01
1.520825372564004463e-01
1.520825372564004463e-01
1.494077187619411440e-01
1.494077187619411440e-01
1.494077187619411440e-01
1.474971341230416622e-01
1.474971341230416622e-01
1.688956820787160806e-01
1.688956820787160806e-01
1.688956820787160806e-01
1.604891096675582773e-01
1.604891096675582773e-01
1.784486052732136008e-01
1.784486052732136008e-01
1.784486052732136008e-01
1.784486052732136008e-01
1.784486052732136008e-01
1.715705005731753829e-01
1.715705005731753829e-01
1.715705005731753829e-01
1.925869316010699328e-01
1.925869316010699328e-01
1.872372946121513282e-01
1.872372946121513282e-01
1.872372946121513282e-01
1.918226977455101123e-01
1.918226977455101123e-01
1.975544516622086411e-01
1.975544516622086411e-01
1.975544516622086411e-01
2.132212457011845586e-01
2.132212457011845586e-01
2.204814673290026728e-01
2.204814673290026728e-01
2.204814673290026728e-01
2.185708826901031632e-01
2.185708826901031632e-01
2.239205196790217678e-01
2.239205196790217678e-01
2.239205196790217678e-01
2.304165074512800893e-01
2.304165074512800893e-01
2.338555598012991843e-01
2.338555598012991843e-01
2.338555598012991843e-01
2.472296522735957236e-01
2.472296522735957236e-01
2.533435231180741209e-01
2.533435231180741209e-01
2.533435231180741209e-01
2.518150554069545355e-01
2.518150554069545355e-01
2.705387848681696794e-01
2.705387848681696794e-01
2.705387848681696794e-01
2.713030187237294721e-01
2.713030187237294721e-01
2.766526557126480768e-01
2.766526557126480768e-01
2.766526557126480768e-01
2.873519296904852860e-01
2.873519296904852860e-01
2.770347726404279731e-01
2.770347726404279731e-01
2.770347726404279731e-01
2.991975544516621843e-01
2.991975544516621843e-01
2.869698127627053896e-01
2.869698127627053896e-01
2.869698127627053896e-01
3.064577760794803263e-01
3.064577760794803263e-01
2.980512036683224952e-01
2.980512036683224952e-01
2.980512036683224952e-01
3.026366068016813071e-01
3.026366068016813071e-01
3.118074130683989309e-01
3.118074130683989309e-01
3.118074130683989309e-01
3.167749331295376392e-01
3.167749331295376392e-01
3.270920901795949520e-01
3.270920901795949520e-01
3.270920901795949520e-01
3.251815055406954702e-01
3.251815055406954702e-01
3.217424531906763474e-01
3.217424531906763474e-01
3.217424531906763474e-01
3.247993886129155738e-01
3.247993886129155738e-01
3.274742071073748484e-01
3.274742071073748484e-01
3.274742071073748484e-01
3.400840657241115950e-01
3.400840657241115950e-01
3.381734810852120576e-01
3.381734810852120576e-01
3.381734810852120576e-01
3.423767672907909732e-01
3.423767672907909732e-01
3.439052350019105586e-01
3.439052350019105586e-01
3.439052350019105586e-01
3.423767672907909732e-01
3.423767672907909732e-01
3.400840657241115950e-01
3.400840657241115950e-01
3.400840657241115950e-01
3.481085212074894741e-01
3.481085212074894741e-01
3.408482995796713877e-01
3.408482995796713877e-01
3.408482995796713877e-01
3.649216660298051362e-01
3.649216660298051362e-01
3.507833397019488042e-01
3.507833397019488042e-01
3.507833397019488042e-01
3.645395491020252399e-01
3.645395491020252399e-01
3.534581581964080788e-01
3.534581581964080788e-01
3.534581581964080788e-01
3.519296904852884933e-01
3.519296904852884933e-01
3.614826136797860134e-01
3.614826136797860134e-01
3.614826136797860134e-01
3.626289644631257025e-01
3.626289644631257025e-01
3.591899121131066352e-01
3.591899121131066352e-01
3.591899121131066352e-01
3.553687428353076161e-01
3.553687428353076161e-01
3.580435613297668906e-01
3.580435613297668906e-01
3.580435613297668906e-01
3.572793274742070979e-01
3.572793274742070979e-01
3.691249522353840518e-01
3.691249522353840518e-01
3.691249522353840518e-01
3.649216660298051362e-01
3.649216660298051362e-01
3.645395491020252399e-01
3.645395491020252399e-01
3.756209400076423455e-01
3.756209400076423455e-01
3.756209400076423455e-01
3.622468475353458062e-01
3.622468475353458062e-01
3.622468475353458062e-01
3.622468475353458062e-01
3.622468475353458062e-01
3.622468475353458062e-01
3.622468475353458062e-01
3.603362628964463243e-01
3.603362628964463243e-01
3.603362628964463243e-01
3.622468475353458062e-01
3.622468475353458062e-01
3.595720290408865316e-01
3.595720290408865316e-01
3.595720290408865316e-01
3.782957585021016200e-01
3.782957585021016200e-01
3.717997707298433263e-01
3.717997707298433263e-01
3.717997707298433263e-01
3.717997707298433263e-01
3.717997707298433263e-01
3.675964845242644108e-01
3.675964845242644108e-01
3.675964845242644108e-01
3.744745892243026564e-01
3.744745892243026564e-01
3.714176538020634299e-01
