2.128391287734046622e-01
2.162781811234237572e-01
2.162781811234237572e-01
2.162781811234237572e-01
2.193351165456629837e-01
2.193351165456629837e-01
2.128391287734046622e-01
2.128391287734046622e-01
2.128391287734046622e-01
2.185708826901031632e-01
2.185708826901031632e-01
2.193351165456629837e-01
2.193351165456629837e-01
2.193351165456629837e-01
2.158960641956438609e-01
2.158960641956438609e-01
2.136033626289644549e-01
2.136033626289644549e-01
2.136033626289644549e-01
2.036683225066870384e-01
2.036683225066870384e-01
2.044325563622468589e-01
2.044325563622468589e-01
2.044325563622468589e-01
2.063431410011463407e-01
2.063431410011463407e-01
2.105464272067252562e-01
2.105464272067252562e-01
2.105464272067252562e-01
2.040504394344669348e-01
2.040504394344669348e-01
2.040504394344669348e-01
2.040504394344669348e-01
2.040504394344669348e-01
1.956438670233091315e-01
1.956438670233091315e-01
1.944975162399694424e-01
1.944975162399694424e-01
1.944975162399694424e-01
2.036683225066870384e-01
2.036683225066870384e-01
2.013756209400076325e-01
2.013756209400076325e-01
2.013756209400076325e-01
1.902942300343905269e-01
1.902942300343905269e-01
1.929690485288498292e-01
1.929690485288498292e-01
1.929690485288498292e-01
1.925869316010699328e-01
1.925869316010699328e-01
1.883836453954910173e-01
1.883836453954910173e-01
1.979365685899885374e-01
1.979365685899885374e-01
1.979365685899885374e-01
1.880015284677111209e-01
1.880015284677111209e-01
1.964081008788689242e-01
1.964081008788689242e-01
1.964081008788689242e-01
1.849445930454719222e-01
1.849445930454719222e-01
1.864730607565915077e-01
1.864730607565915077e-01
1.864730607565915077e-01
1.822697745510126199e-01
1.822697745510126199e-01
1.960259839510890278e-01
1.960259839510890278e-01
1.960259839510890278e-01
1.807413068398930067e-01
1.807413068398930067e-01
1.914405808177302160e-01
1.914405808177302160e-01
1.914405808177302160e-01
1.780664883454337044e-01
1.780664883454337044e-01
1.830340084065724127e-01
1.830340084065724127e-01
1.830340084065724127e-01
1.853267099732518186e-01
1.853267099732518186e-01
1.914405808177302160e-01
1.914405808177302160e-01
1.914405808177302160e-01
1.853267099732518186e-01
1.853267099732518186e-01
1.822697745510126199e-01
1.822697745510126199e-01
1.822697745510126199e-01
1.769201375620939876e-01
1.769201375620939876e-01
1.818876576232326958e-01
1.818876576232326958e-01
1.818876576232326958e-01
1.757737867787542985e-01
1.757737867787542985e-01
1.799770729843332140e-01
1.799770729843332140e-01
1.799770729843332140e-01
1.841803591899121018e-01
1.841803591899121018e-01
1.727168513565150998e-01
1.727168513565150998e-01
1.727168513565150998e-01
1.872372946121513282e-01
1.872372946121513282e-01
1.830340084065724127e-01
1.830340084065724127e-01
1.830340084065724127e-01
1.795949560565533176e-01
1.795949560565533176e-01
1.792128391287733935e-01
1.792128391287733935e-01
1.792128391287733935e-01
1.780664883454337044e-01
1.780664883454337044e-01
1.719526175009552793e-01
1.719526175009552793e-01
1.719526175009552793e-01
1.803591899121131104e-01
1.803591899121131104e-01
1.757737867787542985e-01
1.757737867787542985e-01
1.757737867787542985e-01
1.685135651509361843e-01
1.685135651509361843e-01
1.780664883454337044e-01
1.780664883454337044e-01
1.780664883454337044e-01
1.757737867787542985e-01
1.757737867787542985e-01
1.727168513565150998e-01
1.727168513565150998e-01
1.727168513565150998e-01
1.708062667176155902e-01
1.708062667176155902e-01
1.704241497898356938e-01
1.704241497898356938e-01
1.704241497898356938e-01
1.734810852120748925e-01
1.734810852120748925e-01
1.654566297286969856e-01
1.654566297286969856e-01
1.654566297286969856e-01
1.715705005731753829e-01
1.715705005731753829e-01
1.631639281620175796e-01
1.631639281620175796e-01
1.631639281620175796e-01
1.685135651509361843e-01
1.685135651509361843e-01
1.734810852120748925e-01
1.734810852120748925e-01
1.734810852120748925e-01
1.658387466564768820e-01
1.658387466564768820e-01
1.639281620175773724e-01
1.639281620175773724e-01
1.639281620175773724e-01
1.646923958731371929e-01
1.646923958731371929e-01
1.776843714176538080e-01
1.776843714176538080e-01
1.776843714176538080e-01
1.688956820787160806e-01
1.688956820787160806e-01
1.654566297286969856e-01
1.654566297286969856e-01
1.654566297286969856e-01
1.662208635842567783e-01
1.662208635842567783e-01
1.616354604508979664e-01
1.616354604508979664e-01
1.616354604508979664e-01
1.734810852120748925e-01
1.734810852120748925e-01
1.681314482231562879e-01
1.681314482231562879e-01
1.681314482231562879e-01
1.616354604508979664e-01
1.616354604508979664e-01
1.715705005731753829e-01
1.715705005731753829e-01
1.715705005731753829e-01
1.692777990064959770e-01
1.692777990064959770e-01
1.559037065341994654e-01
1.559037065341994654e-01
1.559037065341994654e-01
1.627818112342376833e-01
1.627818112342376833e-01
1.685135651509361843e-01
1.685135651509361843e-01
1.685135651509361843e-01
1.593427588842185605e-01
1.593427588842185605e-01
1.620175773786778628e-01
1.620175773786778628e-01
1.620175773786778628e-01
1.555215896064195691e-01
1.555215896064195691e-01
1.646923958731371929e-01
1.646923958731371929e-01
1.646923958731371929e-01
1.639281620175773724e-01
1.639281620175773724e-01
1.669850974398165711e-01
1.669850974398165711e-01
1.669850974398165711e-01
1.593427588842185605e-01
1.593427588842185605e-01
1.677493312953763915e-01
1.677493312953763915e-01
1.677493312953763915e-01
1.585785250286587678e-01
1.585785250286587678e-01
1.574321742453190787e-01
1.574321742453190787e-01
1.574321742453190787e-01
1.562858234619793618e-01
1.562858234619793618e-01
1.539931218952999559e-01
1.539931218952999559e-01
1.539931218952999559e-01
1.612533435231180701e-01
1.612533435231180701e-01
1.646923958731371929e-01
1.646923958731371929e-01
1.646923958731371929e-01
1.597248758119984846e-01
1.597248758119984846e-01
1.536110049675200595e-01
1.536110049675200595e-01
1.536110049675200595e-01
1.589606419564386641e-01
1.589606419564386641e-01
1.616354604508979664e-01
1.616354604508979664e-01
1.616354604508979664e-01
1.562858234619793618e-01
1.562858234619793618e-01
1.562858234619793618e-01
1.562858234619793618e-01
1.562858234619793618e-01
1.566679403897592582e-01
1.566679403897592582e-01
1.574321742453190787e-01
1.574321742453190787e-01
1.574321742453190787e-01
1.501719526175009645e-01
1.501719526175009645e-01
1.490256018341612476e-01
1.490256018341612476e-01
1.490256018341612476e-01
1.543752388230798522e-01
1.543752388230798522e-01
1.589606419564386641e-01
1.589606419564386641e-01
1.559037065341994654e-01
1.559037065341994654e-01
1.559037065341994654e-01
1.574321742453190787e-01
1.574321742453190787e-01
1.547573557508597764e-01
1.547573557508597764e-01
1.547573557508597764e-01
1.593427588842185605e-01
1.593427588842185605e-01
1.536110049675200595e-01
1.536110049675200595e-01
1.536110049675200595e-01
1.578142911730989750e-01
1.578142911730989750e-01
1.517004203286205499e-01
1.517004203286205499e-01
1.517004203286205499e-01
1.474971341230416622e-01
1.474971341230416622e-01
1.562858234619793618e-01
1.562858234619793618e-01
1.562858234619793618e-01
1.509361864730607572e-01
1.509361864730607572e-01
1.589606419564386641e-01
1.589606419564386641e-01
1.589606419564386641e-01
1.547573557508597764e-01
1.547573557508597764e-01
1.585785250286587678e-01
1.585785250286587678e-01
1.585785250286587678e-01
1.578142911730989750e-01
1.578142911730989750e-01
1.543752388230798522e-01
1.543752388230798522e-01
1.543752388230798522e-01
1.570500573175391545e-01
1.570500573175391545e-01
1.509361864730607572e-01
1.509361864730607572e-01
1.509361864730607572e-01
1.490256018341612476e-01
1.490256018341612476e-01
1.601069927397783810e-01
1.601069927397783810e-01
1.601069927397783810e-01
1.585785250286587678e-01
1.585785250286587678e-01
1.505540695452808608e-01
1.505540695452808608e-01
1.505540695452808608e-01
1.562858234619793618e-01
1.562858234619793618e-01
1.474971341230416622e-01
1.474971341230416622e-01
1.474971341230416622e-01
1.467329002674818417e-01
1.467329002674818417e-01
1.585785250286587678e-01
1.585785250286587678e-01
1.585785250286587678e-01
1.539931218952999559e-01
1.539931218952999559e-01
1.520825372564004463e-01
1.520825372564004463e-01
1.520825372564004463e-01
1.463507833397019453e-01
1.463507833397019453e-01
1.528467711119602668e-01
1.528467711119602668e-01
1.528467711119602668e-01
1.467329002674818417e-01
1.467329002674818417e-01
1.474971341230416622e-01
1.474971341230416622e-01
1.474971341230416622e-01
1.585785250286587678e-01
1.585785250286587678e-01
1.574321742453190787e-01
1.574321742453190787e-01
1.574321742453190787e-01
1.478792510508215585e-01
1.478792510508215585e-01
1.551394726786396727e-01
1.551394726786396727e-01
1.551394726786396727e-01
1.627818112342376833e-01
1.627818112342376833e-01
1.589606419564386641e-01
1.589606419564386641e-01
1.589606419564386641e-01
1.486434849063813513e-01
1.486434849063813513e-01
1.497898356897210681e-01
1.497898356897210681e-01
1.497898356897210681e-01
1.562858234619793618e-01
1.562858234619793618e-01
1.497898356897210681e-01
1.497898356897210681e-01
1.497898356897210681e-01
1.650745128009170892e-01
1.650745128009170892e-01
1.597248758119984846e-01
1.597248758119984846e-01
1.597248758119984846e-01
1.562858234619793618e-01
1.562858234619793618e-01
1.593427588842185605e-01
1.593427588842185605e-01
1.593427588842185605e-01
1.547573557508597764e-01
1.547573557508597764e-01
1.520825372564004463e-01
1.520825372564004463e-01
1.520825372564004463e-01
1.505540695452808608e-01
1.505540695452808608e-01
1.509361864730607572e-01
1.509361864730607572e-01
1.509361864730607572e-01
1.570500573175391545e-01
1.570500573175391545e-01
1.555215896064195691e-01
1.555215896064195691e-01
1.555215896064195691e-01
1.547573557508597764e-01
1.547573557508597764e-01
1.494077187619411440e-01
1.494077187619411440e-01
1.494077187619411440e-01
1.551394726786396727e-01
1.551394726786396727e-01
1.532288880397401631e-01
1.532288880397401631e-01
1.532288880397401631e-01
1.532288880397401631e-01
1.532288880397401631e-01
1.555215896064195691e-01
1.555215896064195691e-01
1.555215896064195691e-01
1.612533435231180701e-01
1.612533435231180701e-01
1.555215896064195691e-01
1.555215896064195691e-01
1.555215896064195691e-01
1.501719526175009645e-01
1.501719526175009645e-01
1.517004203286205499e-01
1.517004203286205499e-01
1.517004203286205499e-01
1.559037065341994654e-01
1.559037065341994654e-01
1.536110049675200595e-01
1.536110049675200595e-01
1.536110049675200595e-01
1.536110049675200595e-01
1.536110049675200595e-01
1.570500573175391545e-01
1.570500573175391545e-01
1.570500573175391545e-01
1.585785250286587678e-01
1.585785250286587678e-01
1.581964081008788714e-01
1.581964081008788714e-01
1.581964081008788714e-01
1.501719526175009645e-01
1.501719526175009645e-01
1.559037065341994654e-01
1.559037065341994654e-01
1.559037065341994654e-01
1.471150171952617380e-01
1.471150171952617380e-01
1.539931218952999559e-01
1.539931218952999559e-01
1.539931218952999559e-01
1.505540695452808608e-01
1.505540695452808608e-01
1.490256018341612476e-01
1.490256018341612476e-01
1.490256018341612476e-01
1.520825372564004463e-01
1.520825372564004463e-01
1.601069927397783810e-01
1.601069927397783810e-01
1.601069927397783810e-01
1.547573557508597764e-01
1.547573557508597764e-01
1.589606419564386641e-01
1.589606419564386641e-01
1.589606419564386641e-01
1.490256018341612476e-01
1.490256018341612476e-01
1.459686664119220489e-01
1.459686664119220489e-01
1.459686664119220489e-01
1.413832632785632371e-01
1.413832632785632371e-01
1.494077187619411440e-01
1.494077187619411440e-01
1.505540695452808608e-01
1.505540695452808608e-01
1.505540695452808608e-01
1.517004203286205499e-01
1.517004203286205499e-01
1.497898356897210681e-01
1.497898356897210681e-01
1.497898356897210681e-01
1.528467711119602668e-01
1.528467711119602668e-01
1.486434849063813513e-01
1.486434849063813513e-01
1.486434849063813513e-01
1.429117309896828503e-01
1.429117309896828503e-01
1.444401987008024357e-01
1.444401987008024357e-01
1.444401987008024357e-01
1.459686664119220489e-01
1.459686664119220489e-01
1.501719526175009645e-01
1.501719526175009645e-01
1.501719526175009645e-01
1.467329002674818417e-01
1.467329002674818417e-01
1.379442109285441420e-01
1.379442109285441420e-01
1.379442109285441420e-01
1.459686664119220489e-01
1.459686664119220489e-01
1.474971341230416622e-01
1.474971341230416622e-01
1.474971341230416622e-01
1.463507833397019453e-01
1.463507833397019453e-01
1.486434849063813513e-01
1.486434849063813513e-01
1.486434849063813513e-01
1.505540695452808608e-01
1.505540695452808608e-01
1.467329002674818417e-01
1.467329002674818417e-01
1.467329002674818417e-01
1.478792510508215585e-01
1.478792510508215585e-01
1.478792510508215585e-01
1.478792510508215585e-01
1.478792510508215585e-01
1.402369124952235480e-01
1.402369124952235480e-01
1.425296140619029539e-01
1.425296140619029539e-01
1.425296140619029539e-01
1.478792510508215585e-01
1.478792510508215585e-01
1.390905617118838311e-01
1.390905617118838311e-01
1.390905617118838311e-01
1.455865494841421526e-01
1.455865494841421526e-01
1.432938479174627466e-01
1.432938479174627466e-01
1.432938479174627466e-01
1.482613679786014549e-01
1.482613679786014549e-01
1.471150171952617380e-01
1.471150171952617380e-01
1.471150171952617380e-01
1.463507833397019453e-01
1.463507833397019453e-01
1.520825372564004463e-01
1.520825372564004463e-01
1.520825372564004463e-01
1.505540695452808608e-01
1.505540695452808608e-01
1.559037065341994654e-01
1.559037065341994654e-01
1.559037065341994654e-01
1.623996943064577869e-01
1.623996943064577869e-01
1.616354604508979664e-01
1.616354604508979664e-01
1.616354604508979664e-01
1.623996943064577869e-01
1.623996943064577869e-01
1.696599159342759011e-01
1.696599159342759011e-01
1.696599159342759011e-01
1.692777990064959770e-01
1.692777990064959770e-01
1.761559037065341948e-01
1.761559037065341948e-01
1.761559037065341948e-01
1.799770729843332140e-01
1.799770729843332140e-01
1.864730607565915077e-01
1.864730607565915077e-01
1.864730607565915077e-01
1.971723347344287447e-01
1.971723347344287447e-01
2.009935040122277361e-01
2.009935040122277361e-01
2.009935040122277361e-01
2.128391287734046622e-01
2.128391287734046622e-01
2.277416889568207869e-01
2.277416889568207869e-01
2.277416889568207869e-01
2.327092090179594952e-01
2.327092090179594952e-01
2.414978983568972226e-01
2.414978983568972226e-01
2.414978983568972226e-01
2.472296522735957236e-01
2.472296522735957236e-01
2.499044707680550259e-01
2.499044707680550259e-01
2.499044707680550259e-01
2.636606801681314338e-01
2.636606801681314338e-01
2.663354986625907639e-01
2.663354986625907639e-01
2.663354986625907639e-01
2.644249140236912266e-01
2.644249140236912266e-01
2.774168895682078695e-01
2.774168895682078695e-01
2.774168895682078695e-01
2.938479174627435797e-01
2.938479174627435797e-01
2.892625143293847678e-01
2.892625143293847678e-01
2.892625143293847678e-01
3.034008406572410999e-01
3.034008406572410999e-01
2.930836836071837870e-01
2.930836836071837870e-01
2.930836836071837870e-01
3.152464654184180537e-01
3.152464654184180537e-01
3.205961024073366583e-01
3.205961024073366583e-01
3.205961024073366583e-01
3.152464654184180537e-01
3.152464654184180537e-01
3.190676346962170173e-01
3.190676346962170173e-01
3.190676346962170173e-01
3.316774933129537639e-01
3.316774933129537639e-01
3.377913641574321613e-01
3.377913641574321613e-01
3.377913641574321613e-01
3.412304165074512841e-01
3.412304165074512841e-01
3.492548719908292187e-01
3.492548719908292187e-01
3.492548719908292187e-01
3.419946503630110768e-01
3.419946503630110768e-01
3.534581581964080788e-01
3.534581581964080788e-01
3.534581581964080788e-01
3.595720290408865316e-01
3.595720290408865316e-01
3.584256782575467870e-01
3.584256782575467870e-01
3.584256782575467870e-01
3.603362628964463243e-01
3.603362628964463243e-01
3.698891860909438445e-01
3.698891860909438445e-01
3.698891860909438445e-01
3.675964845242644108e-01
3.675964845242644108e-01
3.664501337409247217e-01
3.664501337409247217e-01
3.664501337409247217e-01
3.653037829575850326e-01
3.653037829575850326e-01
3.645395491020252399e-01
3.645395491020252399e-01
3.645395491020252399e-01
3.802063431410011574e-01
3.802063431410011574e-01
3.721818876576232227e-01
3.721818876576232227e-01
3.721818876576232227e-01
3.782957585021016200e-01
3.782957585021016200e-01
3.763851738632021382e-01
3.763851738632021382e-01
3.763851738632021382e-01
3.756209400076423455e-01
3.756209400076423455e-01
3.824990447076805355e-01
3.824990447076805355e-01
3.824990447076805355e-01
3.760030569354222418e-01
3.760030569354222418e-01
3.805884600687810537e-01
3.805884600687810537e-01
3.767672907909820346e-01
3.767672907909820346e-01
3.767672907909820346e-01
3.794421092854413646e-01
3.794421092854413646e-01
3.821169277799006392e-01
3.821169277799006392e-01
3.821169277799006392e-01
3.779136415743217237e-01
3.779136415743217237e-01
3.817348108521207428e-01
3.817348108521207428e-01
3.817348108521207428e-01
3.874665647688192438e-01
3.874665647688192438e-01
3.809705769965609501e-01
3.809705769965609501e-01
3.809705769965609501e-01
3.851738632021398656e-01
3.851738632021398656e-01
3.844096293465800729e-01
3.844096293465800729e-01
3.844096293465800729e-01
3.817348108521207428e-01
3.817348108521207428e-01
3.859380970576996583e-01
3.859380970576996583e-01
3.859380970576996583e-01
3.779136415743217237e-01
3.779136415743217237e-01
3.874665647688192438e-01
3.874665647688192438e-01
3.874665647688192438e-01
3.794421092854413646e-01
3.794421092854413646e-01
3.867023309132594511e-01
3.867023309132594511e-01
3.867023309132594511e-01
3.809705769965609501e-01
3.809705769965609501e-01
3.909056171188383666e-01
3.909056171188383666e-01
3.909056171188383666e-01
3.802063431410011574e-01
3.802063431410011574e-01
3.802063431410011574e-01
3.802063431410011574e-01
3.802063431410011574e-01
3.805884600687810537e-01
3.805884600687810537e-01
3.805884600687810537e-01
3.805884600687810537e-01
3.805884600687810537e-01
3.909056171188383666e-01
3.909056171188383666e-01
3.844096293465800729e-01
3.844096293465800729e-01
3.844096293465800729e-01
3.901413832632785739e-01
3.901413832632785739e-01
3.802063431410011574e-01
3.802063431410011574e-01
3.802063431410011574e-01
3.847917462743599692e-01
3.847917462743599692e-01
3.855559801299197620e-01
3.855559801299197620e-01
3.855559801299197620e-01
3.828811616354604319e-01
3.828811616354604319e-01
3.870844478410393474e-01
3.870844478410393474e-01
3.870844478410393474e-01
3.878486816965991402e-01
3.878486816965991402e-01
3.874665647688192438e-01
3.874665647688192438e-01
3.874665647688192438e-01
3.920519679021780557e-01
3.920519679021780557e-01
3.813526939243408465e-01
3.813526939243408465e-01
3.813526939243408465e-01
3.943446694688574894e-01
3.943446694688574894e-01
3.909056171188383666e-01
3.909056171188383666e-01
3.909056171188383666e-01
3.870844478410393474e-01
3.870844478410393474e-01
3.798242262132212610e-01
3.798242262132212610e-01
3.798242262132212610e-01
3.897592663354986775e-01
3.897592663354986775e-01
3.924340848299579521e-01
3.924340848299579521e-01
3.924340848299579521e-01
3.889950324799388848e-01
3.889950324799388848e-01
3.928162017577378484e-01
3.928162017577378484e-01
3.928162017577378484e-01
3.817348108521207428e-01
3.817348108521207428e-01
3.870844478410393474e-01
3.870844478410393474e-01
3.870844478410393474e-01
3.840275124188001765e-01
3.840275124188001765e-01
3.824990447076805355e-01
3.824990447076805355e-01
3.824990447076805355e-01
3.836453954910202246e-01
3.836453954910202246e-01
3.760030569354222418e-01
3.760030569354222418e-01
3.760030569354222418e-01
3.813526939243408465e-01
3.813526939243408465e-01
3.805884600687810537e-01
3.805884600687810537e-01
3.805884600687810537e-01
3.786778754298815164e-01
3.786778754298815164e-01
3.752388230798624491e-01
3.752388230798624491e-01
3.752388230798624491e-01
3.717997707298433263e-01
3.717997707298433263e-01
3.855559801299197620e-01
3.855559801299197620e-01
3.855559801299197620e-01
3.809705769965609501e-01
3.809705769965609501e-01
3.763851738632021382e-01
3.763851738632021382e-01
3.763851738632021382e-01
3.779136415743217237e-01
3.779136415743217237e-01
3.756209400076423455e-01
3.756209400076423455e-01
3.756209400076423455e-01
3.637753152464653916e-01
3.637753152464653916e-01
3.695070691631639481e-01
3.695070691631639481e-01
3.695070691631639481e-01
3.660680168131448253e-01
3.660680168131448253e-01
3.687428353076040999e-01
3.687428353076040999e-01
3.687428353076040999e-01
3.626289644631257025e-01
3.626289644631257025e-01
3.588077951853266834e-01
3.588077951853266834e-01
3.588077951853266834e-01
3.675964845242644108e-01
3.675964845242644108e-01
3.649216660298051362e-01
3.649216660298051362e-01
3.649216660298051362e-01
3.565150936186473052e-01
3.565150936186473052e-01
3.427588842185708695e-01
3.427588842185708695e-01
3.427588842185708695e-01
3.446694688574704069e-01
3.446694688574704069e-01
3.358807795185326794e-01
3.358807795185326794e-01
3.358807795185326794e-01
3.404661826518914913e-01
3.404661826518914913e-01
3.351165456629728867e-01
3.351165456629728867e-01
3.351165456629728867e-01
3.419946503630110768e-01
3.419946503630110768e-01
3.370271303018723685e-01
3.370271303018723685e-01
3.370271303018723685e-01
3.255636224684753666e-01
3.255636224684753666e-01
3.236530378295758292e-01
3.236530378295758292e-01
3.236530378295758292e-01
3.240351547573557256e-01
3.240351547573557256e-01
3.205961024073366583e-01
3.205961024073366583e-01
3.205961024073366583e-01
3.060756591517004299e-01
3.060756591517004299e-01
3.137179977072984127e-01
3.137179977072984127e-01
3.137179977072984127e-01
3.091325945739396008e-01
3.091325945739396008e-01
2.969048528849828061e-01
2.969048528849828061e-01
2.969048528849828061e-01
3.022544898739014108e-01
3.022544898739014108e-01
2.892625143293847678e-01
2.892625143293847678e-01
2.934658005349636833e-01
2.934658005349636833e-01
2.934658005349636833e-01
2.884982804738249751e-01
2.884982804738249751e-01
2.835307604126862668e-01
2.835307604126862668e-01
2.835307604126862668e-01
2.800917080626671996e-01
2.800917080626671996e-01
2.831486434849063705e-01
2.831486434849063705e-01
2.831486434849063705e-01
2.766526557126480768e-01
2.766526557126480768e-01
2.770347726404279731e-01
2.770347726404279731e-01
2.770347726404279731e-01
2.648070309514711229e-01
2.648070309514711229e-01
2.693924340848299348e-01
2.693924340848299348e-01
2.693924340848299348e-01
2.774168895682078695e-01
2.774168895682078695e-01
2.628964463125716411e-01
2.628964463125716411e-01
2.628964463125716411e-01
2.594573939625525183e-01
2.594573939625525183e-01
2.644249140236912266e-01
2.644249140236912266e-01
2.644249140236912266e-01
2.560183416125334510e-01
2.560183416125334510e-01
2.598395108903324147e-01
2.598395108903324147e-01
2.598395108903324147e-01
2.609858616736721593e-01
2.609858616736721593e-01
2.621322124570118484e-01
2.621322124570118484e-01
2.621322124570118484e-01
2.632785632403515375e-01
2.632785632403515375e-01
2.567825754680932437e-01
2.567825754680932437e-01
2.567825754680932437e-01
2.476117692013756200e-01
2.476117692013756200e-01
2.476117692013756200e-01
2.476117692013756200e-01
2.476117692013756200e-01
2.541077569736339137e-01
2.541077569736339137e-01
2.437905999235766008e-01
2.437905999235766008e-01
2.437905999235766008e-01
2.556362246847535546e-01
2.556362246847535546e-01
2.464654184180359309e-01
2.464654184180359309e-01
2.464654184180359309e-01
2.502865876958349500e-01
2.502865876958349500e-01
2.449369507069163177e-01
2.449369507069163177e-01
2.449369507069163177e-01
2.564004585403133474e-01
2.564004585403133474e-01
2.476117692013756200e-01
2.476117692013756200e-01
2.476117692013756200e-01
2.483760030569354127e-01
2.483760030569354127e-01
2.434084829957967044e-01
2.434084829957967044e-01
2.434084829957967044e-01
2.365303782957585144e-01
2.365303782957585144e-01
2.449369507069163177e-01
2.449369507069163177e-01
2.449369507069163177e-01
2.472296522735957236e-01
2.472296522735957236e-01
2.411157814291172985e-01
2.411157814291172985e-01
2.411157814291172985e-01
2.437905999235766008e-01
2.437905999235766008e-01
2.376767290790982035e-01
2.376767290790982035e-01
2.376767290790982035e-01
2.441727168513565249e-01
2.441727168513565249e-01
2.376767290790982035e-01
2.376767290790982035e-01
2.376767290790982035e-01
2.342376767290791084e-01
2.342376767290791084e-01
2.434084829957967044e-01
2.434084829957967044e-01
2.434084829957967044e-01
2.288880397401604760e-01
2.288880397401604760e-01
2.342376767290791084e-01
2.342376767290791084e-01
2.342376767290791084e-01
2.338555598012991843e-01
2.338555598012991843e-01
2.273595720290408906e-01
2.273595720290408906e-01
2.273595720290408906e-01
2.265953381734810979e-01
2.265953381734810979e-01
2.403515475735575058e-01
2.403515475735575058e-01
2.403515475735575058e-01
2.376767290790982035e-01
2.376767290790982035e-01
2.285059228123805797e-01
2.285059228123805797e-01
2.285059228123805797e-01
2.311807413068398820e-01
2.311807413068398820e-01
2.304165074512800893e-01
2.304165074512800893e-01
2.304165074512800893e-01
2.292701566679404002e-01
2.292701566679404002e-01
2.216278181123423896e-01
2.216278181123423896e-01
2.216278181123423896e-01
2.212457011845624655e-01
2.212457011845624655e-01
2.155139472678639645e-01
2.155139472678639645e-01
2.155139472678639645e-01
2.269774551012609942e-01
2.269774551012609942e-01
2.174245319067634741e-01
2.174245319067634741e-01
2.174245319067634741e-01
2.197172334734428800e-01
2.197172334734428800e-01
2.158960641956438609e-01
2.158960641956438609e-01
2.158960641956438609e-01
2.212457011845624655e-01
2.212457011845624655e-01
2.178066488345433704e-01
2.178066488345433704e-01
2.178066488345433704e-01
2.185708826901031632e-01
2.185708826901031632e-01
2.116927779900649731e-01
2.116927779900649731e-01
2.116927779900649731e-01
2.147497134123041718e-01
2.147497134123041718e-01
2.105464272067252562e-01
2.105464272067252562e-01
2.105464272067252562e-01
2.067252579289262648e-01
2.067252579289262648e-01
2.101643102789453599e-01
2.101643102789453599e-01
2.101643102789453599e-01
2.067252579289262648e-01
2.067252579289262648e-01
2.021398547955674529e-01
2.021398547955674529e-01
2.021398547955674529e-01
2.044325563622468589e-01
2.044325563622468589e-01
2.155139472678639645e-01
2.155139472678639645e-01
2.155139472678639645e-01
2.025219717233473493e-01
2.025219717233473493e-01
2.025219717233473493e-01
2.025219717233473493e-01
2.025219717233473493e-01
2.059610240733664444e-01
2.059610240733664444e-01
2.002292701566679434e-01
2.002292701566679434e-01
2.002292701566679434e-01
2.025219717233473493e-01
2.025219717233473493e-01
2.013756209400076325e-01
2.013756209400076325e-01
2.013756209400076325e-01
1.964081008788689242e-01
1.964081008788689242e-01
1.960259839510890278e-01
1.960259839510890278e-01
1.960259839510890278e-01
1.925869316010699328e-01
1.925869316010699328e-01
1.948796331677493388e-01
1.948796331677493388e-01
1.994650363011081506e-01
1.994650363011081506e-01
1.994650363011081506e-01
1.925869316010699328e-01
1.925869316010699328e-01
1.864730607565915077e-01
1.864730607565915077e-01
1.864730607565915077e-01
1.910584638899503196e-01
1.910584638899503196e-01
1.964081008788689242e-01
1.964081008788689242e-01
1.964081008788689242e-01
1.941153993121895183e-01
1.941153993121895183e-01
1.799770729843332140e-01
1.799770729843332140e-01
1.799770729843332140e-01
1.860909438288116113e-01
1.860909438288116113e-01
1.834161253343523090e-01
1.834161253343523090e-01
1.834161253343523090e-01
1.895299961788307341e-01
1.895299961788307341e-01
1.918226977455101123e-01
1.918226977455101123e-01
1.918226977455101123e-01
1.834161253343523090e-01
1.834161253343523090e-01
1.776843714176538080e-01
1.776843714176538080e-01
1.776843714176538080e-01
1.837982422621322054e-01
1.837982422621322054e-01
1.841803591899121018e-01
1.841803591899121018e-01
1.841803591899121018e-01
1.815055406954527994e-01
1.815055406954527994e-01
1.761559037065341948e-01
1.761559037065341948e-01
1.761559037065341948e-01
1.750095529231945057e-01
1.750095529231945057e-01
1.834161253343523090e-01
1.834161253343523090e-01
1.834161253343523090e-01
1.761559037065341948e-01
1.761559037065341948e-01
1.734810852120748925e-01
1.734810852120748925e-01
1.734810852120748925e-01
1.750095529231945057e-01
1.750095529231945057e-01
1.807413068398930067e-01
1.807413068398930067e-01
1.807413068398930067e-01
1.681314482231562879e-01
1.681314482231562879e-01
1.750095529231945057e-01
1.750095529231945057e-01
1.750095529231945057e-01
1.753916698509744021e-01
1.753916698509744021e-01
1.715705005731753829e-01
1.715705005731753829e-01
1.715705005731753829e-01
1.773022544898739117e-01
1.773022544898739117e-01
1.750095529231945057e-01
1.750095529231945057e-01
1.750095529231945057e-01
1.662208635842567783e-01
1.662208635842567783e-01
1.608712265953381737e-01
1.608712265953381737e-01
1.608712265953381737e-01
1.639281620175773724e-01
1.639281620175773724e-01
1.734810852120748925e-01
1.734810852120748925e-01
1.734810852120748925e-01
1.730989682842949962e-01
1.730989682842949962e-01
1.666029805120366747e-01
1.666029805120366747e-01
1.666029805120366747e-01
1.669850974398165711e-01
1.669850974398165711e-01
1.711883836453954866e-01
1.711883836453954866e-01
1.711883836453954866e-01
1.688956820787160806e-01
1.688956820787160806e-01
1.608712265953381737e-01
1.608712265953381737e-01
1.608712265953381737e-01
1.643102789453572687e-01
1.643102789453572687e-01
1.643102789453572687e-01
1.643102789453572687e-01
1.643102789453572687e-01
1.589606419564386641e-01
1.589606419564386641e-01
1.616354604508979664e-01
1.616354604508979664e-01
1.616354604508979664e-01
1.643102789453572687e-01
1.643102789453572687e-01
1.616354604508979664e-01
1.616354604508979664e-01
1.616354604508979664e-01
1.562858234619793618e-01
1.562858234619793618e-01
1.532288880397401631e-01
1.532288880397401631e-01
1.532288880397401631e-01
1.612533435231180701e-01
1.612533435231180701e-01
1.532288880397401631e-01
1.532288880397401631e-01
1.532288880397401631e-01
1.578142911730989750e-01
1.578142911730989750e-01
1.616354604508979664e-01
1.616354604508979664e-01
1.616354604508979664e-01
1.559037065341994654e-01
1.559037065341994654e-01
1.559037065341994654e-01
1.559037065341994654e-01
1.559037065341994654e-01
1.566679403897592582e-01
1.566679403897592582e-01
1.536110049675200595e-01
1.536110049675200595e-01
1.536110049675200595e-01
1.601069927397783810e-01
1.601069927397783810e-01
1.597248758119984846e-01
1.597248758119984846e-01
1.597248758119984846e-01
1.578142911730989750e-01
1.578142911730989750e-01
1.559037065341994654e-01
1.559037065341994654e-01
1.559037065341994654e-01
1.478792510508215585e-01
1.478792510508215585e-01
1.539931218952999559e-01
1.539931218952999559e-01
1.539931218952999559e-01
1.517004203286205499e-01
1.517004203286205499e-01
1.528467711119602668e-01
1.528467711119602668e-01
1.528467711119602668e-01
1.585785250286587678e-01
1.585785250286587678e-01
1.566679403897592582e-01
1.566679403897592582e-01
1.566679403897592582e-01
1.501719526175009645e-01
1.501719526175009645e-01
1.539931218952999559e-01
1.539931218952999559e-01
1.539931218952999559e-01
1.578142911730989750e-01
1.578142911730989750e-01
1.528467711119602668e-01
1.528467711119602668e-01
1.528467711119602668e-01
1.555215896064195691e-01
1.555215896064195691e-01
1.559037065341994654e-01
1.559037065341994654e-01
1.559037065341994654e-01
1.478792510508215585e-01
1.478792510508215585e-01
1.555215896064195691e-01
1.555215896064195691e-01
1.555215896064195691e-01
1.570500573175391545e-01
1.570500573175391545e-01
1.601069927397783810e-01
1.601069927397783810e-01
1.601069927397783810e-01
1.559037065341994654e-01
1.559037065341994654e-01
1.471150171952617380e-01
1.471150171952617380e-01
1.471150171952617380e-01
1.486434849063813513e-01
1.486434849063813513e-01
1.604891096675582773e-01
1.604891096675582773e-01
1.604891096675582773e-01
1.528467711119602668e-01
1.528467711119602668e-01
1.547573557508597764e-01
1.547573557508597764e-01
1.559037065341994654e-01
1.559037065341994654e-01
1.559037065341994654e-01
1.551394726786396727e-01
1.551394726786396727e-01
1.532288880397401631e-01
1.532288880397401631e-01
1.532288880397401631e-01
1.578142911730989750e-01
1.578142911730989750e-01
1.532288880397401631e-01
1.532288880397401631e-01
1.532288880397401631e-01
1.562858234619793618e-01
1.562858234619793618e-01
1.551394726786396727e-01
1.551394726786396727e-01
1.551394726786396727e-01
1.574321742453190787e-01
1.574321742453190787e-01
1.566679403897592582e-01
1.566679403897592582e-01
1.566679403897592582e-01
1.581964081008788714e-01
1.581964081008788714e-01
1.551394726786396727e-01
1.551394726786396727e-01
1.551394726786396727e-01
1.501719526175009645e-01
1.501719526175009645e-01
1.555215896064195691e-01
1.555215896064195691e-01
1.555215896064195691e-01
1.528467711119602668e-01
1.528467711119602668e-01
1.494077187619411440e-01
1.494077187619411440e-01
1.494077187619411440e-01
1.585785250286587678e-01
1.585785250286587678e-01
1.536110049675200595e-01
1.536110049675200595e-01
1.536110049675200595e-01
1.459686664119220489e-01
1.459686664119220489e-01
1.459686664119220489e-01
1.459686664119220489e-01
1.459686664119220489e-01
1.494077187619411440e-01
1.494077187619411440e-01
1.524646541841803704e-01
1.524646541841803704e-01
1.524646541841803704e-01
1.490256018341612476e-01
1.490256018341612476e-01
1.459686664119220489e-01
1.459686664119220489e-01
1.459686664119220489e-01
1.494077187619411440e-01
1.494077187619411440e-01
1.566679403897592582e-01
1.566679403897592582e-01
1.566679403897592582e-01
1.440580817730225394e-01
1.440580817730225394e-01
1.444401987008024357e-01
1.444401987008024357e-01
1.444401987008024357e-01
1.551394726786396727e-01
1.551394726786396727e-01
1.547573557508597764e-01
1.547573557508597764e-01
1.547573557508597764e-01
1.497898356897210681e-01
1.497898356897210681e-01
1.478792510508215585e-01
1.478792510508215585e-01
1.478792510508215585e-01
1.455865494841421526e-01
1.455865494841421526e-01
1.444401987008024357e-01
1.444401987008024357e-01
1.444401987008024357e-01
1.463507833397019453e-01
1.463507833397019453e-01
1.474971341230416622e-01
1.474971341230416622e-01
1.474971341230416622e-01
1.555215896064195691e-01
1.555215896064195691e-01
1.528467711119602668e-01
1.528467711119602668e-01
1.528467711119602668e-01
1.474971341230416622e-01
1.474971341230416622e-01
1.421474971341230298e-01
1.421474971341230298e-01
1.421474971341230298e-01
1.505540695452808608e-01
1.505540695452808608e-01
1.379442109285441420e-01
1.379442109285441420e-01
1.379442109285441420e-01
1.406190294230034443e-01
1.406190294230034443e-01
1.463507833397019453e-01
1.463507833397019453e-01
1.463507833397019453e-01
1.432938479174627466e-01
1.432938479174627466e-01
1.459686664119220489e-01
1.459686664119220489e-01
1.459686664119220489e-01
1.482613679786014549e-01
1.482613679786014549e-01
1.364157432174245288e-01
1.364157432174245288e-01
1.364157432174245288e-01
1.398547955674436516e-01
1.398547955674436516e-01
1.406190294230034443e-01
1.406190294230034443e-01
1.406190294230034443e-01
1.471150171952617380e-01
1.471150171952617380e-01
1.478792510508215585e-01
1.478792510508215585e-01
1.478792510508215585e-01
1.410011463507833407e-01
1.410011463507833407e-01
1.387084447841039347e-01
1.387084447841039347e-01
1.387084447841039347e-01
1.459686664119220489e-01
1.459686664119220489e-01
1.448223156285823598e-01
1.448223156285823598e-01
1.448223156285823598e-01
1.474971341230416622e-01
1.474971341230416622e-01
1.482613679786014549e-01
1.482613679786014549e-01
1.482613679786014549e-01
1.390905617118838311e-01
1.390905617118838311e-01
1.333588077951853301e-01
1.333588077951853301e-01
1.333588077951853301e-01
1.367978601452044252e-01
1.367978601452044252e-01
1.367978601452044252e-01
1.367978601452044252e-01
1.367978601452044252e-01
1.406190294230034443e-01
1.406190294230034443e-01
1.364157432174245288e-01
1.364157432174245288e-01
1.364157432174245288e-01
1.333588077951853301e-01
1.333588077951853301e-01
1.402369124952235480e-01
1.402369124952235480e-01
1.402369124952235480e-01
1.429117309896828503e-01
1.429117309896828503e-01
1.410011463507833407e-01
1.410011463507833407e-01
1.410011463507833407e-01
1.337409247229652265e-01
1.337409247229652265e-01
1.429117309896828503e-01
1.429117309896828503e-01
1.429117309896828503e-01
1.383263278563240384e-01
1.383263278563240384e-01
1.322124570118456133e-01
1.322124570118456133e-01
1.322124570118456133e-01
1.429117309896828503e-01
1.429117309896828503e-01
1.371799770729843215e-01
1.371799770729843215e-01
1.371799770729843215e-01
1.333588077951853301e-01
1.333588077951853301e-01
1.348872755063049156e-01
1.348872755063049156e-01
1.348872755063049156e-01
1.410011463507833407e-01
1.410011463507833407e-01
1.318303400840657169e-01
1.318303400840657169e-01
1.318303400840657169e-01
1.402369124952235480e-01
1.402369124952235480e-01
1.440580817730225394e-01
1.440580817730225394e-01
1.440580817730225394e-01
1.306839893007260278e-01
1.306839893007260278e-01
1.345051585785250192e-01
1.345051585785250192e-01
1.345051585785250192e-01
1.383263278563240384e-01
1.383263278563240384e-01
1.371799770729843215e-01
1.371799770729843215e-01
1.432938479174627466e-01
1.432938479174627466e-01
1.432938479174627466e-01
1.459686664119220489e-01
1.459686664119220489e-01
1.463507833397019453e-01
1.463507833397019453e-01
1.463507833397019453e-01
1.432938479174627466e-01
1.432938479174627466e-01
1.474971341230416622e-01
1.474971341230416622e-01
1.474971341230416622e-01
1.367978601452044252e-01
1.367978601452044252e-01
1.452044325563622562e-01
1.452044325563622562e-01
1.452044325563622562e-01
1.547573557508597764e-01
1.547573557508597764e-01
1.593427588842185605e-01
1.593427588842185605e-01
1.593427588842185605e-01
1.559037065341994654e-01
1.559037065341994654e-01
1.616354604508979664e-01
1.616354604508979664e-01
1.616354604508979664e-01
1.700420328620557975e-01
1.700420328620557975e-01
1.643102789453572687e-01
1.643102789453572687e-01
1.643102789453572687e-01
1.757737867787542985e-01
1.757737867787542985e-01
1.899121131066106305e-01
1.899121131066106305e-01
1.899121131066106305e-01
1.864730607565915077e-01
1.864730607565915077e-01
1.956438670233091315e-01
1.956438670233091315e-01
1.956438670233091315e-01
2.105464272067252562e-01
2.105464272067252562e-01
1.990829193733282265e-01
1.990829193733282265e-01
1.990829193733282265e-01
2.128391287734046622e-01
2.128391287734046622e-01
2.181887657623232668e-01
2.181887657623232668e-01
2.181887657623232668e-01
2.315628582346198061e-01
2.315628582346198061e-01
2.388230798624378926e-01
2.388230798624378926e-01
2.388230798624378926e-01
2.346197936568590048e-01
2.346197936568590048e-01
2.548719908291937064e-01
2.548719908291937064e-01
2.548719908291937064e-01
2.556362246847535546e-01
2.556362246847535546e-01
2.644249140236912266e-01
2.644249140236912266e-01
2.644249140236912266e-01
2.678639663737103493e-01
2.678639663737103493e-01
2.701566679403897830e-01
2.701566679403897830e-01
2.701566679403897830e-01
2.777990064959877659e-01
2.777990064959877659e-01
2.896446312571647197e-01
2.896446312571647197e-01
2.896446312571647197e-01
2.877340466182651824e-01
2.877340466182651824e-01
2.923194497516239942e-01
2.923194497516239942e-01
2.923194497516239942e-01
3.137179977072984127e-01
3.137179977072984127e-01
3.034008406572410999e-01
3.034008406572410999e-01
3.034008406572410999e-01
3.076041268628200154e-01
3.076041268628200154e-01
3.167749331295376392e-01
3.167749331295376392e-01
3.167749331295376392e-01
3.190676346962170173e-01
3.190676346962170173e-01
3.198318685517768656e-01
3.198318685517768656e-01
3.198318685517768656e-01
3.290026748184944339e-01
3.290026748184944339e-01
3.362628964463125758e-01
3.362628964463125758e-01
3.362628964463125758e-01
3.354986625907527831e-01
3.354986625907527831e-01
3.412304165074512841e-01
3.412304165074512841e-01
3.412304165074512841e-01
3.412304165074512841e-01
3.412304165074512841e-01
3.576614444019869943e-01
3.576614444019869943e-01
3.576614444019869943e-01
3.481085212074894741e-01
3.481085212074894741e-01
3.519296904852884933e-01
3.519296904852884933e-01
3.519296904852884933e-01
3.473442873519296814e-01
3.473442873519296814e-01
3.492548719908292187e-01
3.492548719908292187e-01
3.492548719908292187e-01
3.500191058463890115e-01
3.500191058463890115e-01
3.549866259075277197e-01
3.549866259075277197e-01
3.549866259075277197e-01
3.599541459686664280e-01
3.599541459686664280e-01
3.568972105464272015e-01
3.568972105464272015e-01
3.568972105464272015e-01
3.633931983186854953e-01
3.633931983186854953e-01
3.653037829575850326e-01
3.653037829575850326e-01
3.653037829575850326e-01
3.725640045854031190e-01
3.725640045854031190e-01
3.706534199465036372e-01
3.706534199465036372e-01
3.706534199465036372e-01
3.717997707298433263e-01
3.717997707298433263e-01
3.714176538020634299e-01
3.714176538020634299e-01
3.714176538020634299e-01
3.737103553687428081e-01
3.737103553687428081e-01
3.702713030187237409e-01
3.702713030187237409e-01
3.702713030187237409e-01
3.645395491020252399e-01
3.645395491020252399e-01
3.702713030187237409e-01
3.702713030187237409e-01
3.702713030187237409e-01
3.645395491020252399e-01
3.645395491020252399e-01
3.714176538020634299e-01
3.714176538020634299e-01
3.714176538020634299e-01
3.702713030187237409e-01
3.702713030187237409e-01
3.748567061520825527e-01
3.748567061520825527e-01
3.748567061520825527e-01
3.660680168131448253e-01
3.660680168131448253e-01
3.729461215131830154e-01
3.729461215131830154e-01
3.729461215131830154e-01
3.763851738632021382e-01
3.763851738632021382e-01
3.683607183798242035e-01
3.683607183798242035e-01
3.683607183798242035e-01
3.737103553687428081e-01
3.737103553687428081e-01
3.679786014520443072e-01
3.679786014520443072e-01
3.679786014520443072e-01
3.695070691631639481e-01
3.695070691631639481e-01
3.630110813909055989e-01
3.630110813909055989e-01
3.630110813909055989e-01
3.706534199465036372e-01
3.706534199465036372e-01
3.763851738632021382e-01
3.763851738632021382e-01
3.763851738632021382e-01
3.660680168131448253e-01
3.660680168131448253e-01
3.706534199465036372e-01
3.706534199465036372e-01
3.706534199465036372e-01
3.679786014520443072e-01
3.679786014520443072e-01
3.786778754298815164e-01
3.786778754298815164e-01
3.702713030187237409e-01
3.702713030187237409e-01
3.702713030187237409e-01
3.729461215131830154e-01
3.729461215131830154e-01
3.744745892243026564e-01
3.744745892243026564e-01
3.744745892243026564e-01
3.710355368742835336e-01
3.710355368742835336e-01
3.779136415743217237e-01
3.779136415743217237e-01
3.779136415743217237e-01
3.748567061520825527e-01
3.748567061520825527e-01
3.729461215131830154e-01
3.729461215131830154e-01
3.729461215131830154e-01
3.717997707298433263e-01
3.717997707298433263e-01
3.675964845242644108e-01
3.675964845242644108e-01
3.675964845242644108e-01
3.737103553687428081e-01
3.737103553687428081e-01
3.710355368742835336e-01
3.710355368742835336e-01
3.710355368742835336e-01
3.748567061520825527e-01
3.748567061520825527e-01
3.729461215131830154e-01
3.729461215131830154e-01
3.729461215131830154e-01
3.733282384409629118e-01
3.733282384409629118e-01
3.698891860909438445e-01
3.698891860909438445e-01
3.698891860909438445e-01
3.756209400076423455e-01
3.756209400076423455e-01
3.672143675964845144e-01
3.672143675964845144e-01
3.672143675964845144e-01
3.733282384409629118e-01
3.733282384409629118e-01
3.653037829575850326e-01
3.653037829575850326e-01
3.653037829575850326e-01
3.641574321742453435e-01
3.641574321742453435e-01
3.630110813909055989e-01
3.630110813909055989e-01
3.630110813909055989e-01
3.645395491020252399e-01
3.645395491020252399e-01
3.649216660298051362e-01
3.649216660298051362e-01
3.649216660298051362e-01
3.683607183798242035e-01
3.683607183798242035e-01
3.595720290408865316e-01
3.595720290408865316e-01
3.595720290408865316e-01
3.637753152464653916e-01
3.637753152464653916e-01
3.565150936186473052e-01
3.565150936186473052e-01
3.565150936186473052e-01
3.611004967520061171e-01
3.611004967520061171e-01
3.500191058463890115e-01
3.500191058463890115e-01
3.500191058463890115e-01
3.591899121131066352e-01
3.591899121131066352e-01
3.538402751241879751e-01
3.538402751241879751e-01
3.538402751241879751e-01
3.481085212074894741e-01
3.481085212074894741e-01
3.515475735575085969e-01
3.515475735575085969e-01
3.515475735575085969e-01
3.446694688574704069e-01
3.446694688574704069e-01
3.408482995796713877e-01
3.408482995796713877e-01
3.408482995796713877e-01
3.477264042797095778e-01
3.477264042797095778e-01
3.454337027130301996e-01
3.454337027130301996e-01
3.454337027130301996e-01
3.381734810852120576e-01
3.381734810852120576e-01
3.274742071073748484e-01
3.274742071073748484e-01
3.274742071073748484e-01
3.309132594573939712e-01
3.309132594573939712e-01
3.335880779518532457e-01
3.335880779518532457e-01
3.335880779518532457e-01
3.221245701184562438e-01
3.221245701184562438e-01
3.198318685517768656e-01
3.198318685517768656e-01
3.198318685517768656e-01
3.183034008406572246e-01
3.183034008406572246e-01
3.152464654184180537e-01
3.152464654184180537e-01
3.152464654184180537e-01
3.056935422239205336e-01
3.056935422239205336e-01
3.125716469239587236e-01
3.125716469239587236e-01
3.125716469239587236e-01
3.106610622850592418e-01
3.106610622850592418e-01
2.984333205961023916e-01
2.984333205961023916e-01
2.984333205961023916e-01
2.984333205961023916e-01
2.984333205961023916e-01
2.976690867405425989e-01
2.976690867405425989e-01
2.976690867405425989e-01
2.957585021016431170e-01
2.957585021016431170e-01
2.953763851738632207e-01
2.953763851738632207e-01
2.953763851738632207e-01
2.854413450515858042e-01
2.854413450515858042e-01
2.953763851738632207e-01
2.953763851738632207e-01
2.953763851738632207e-01
2.835307604126862668e-01
2.835307604126862668e-01
2.854413450515858042e-01
2.854413450515858042e-01
2.854413450515858042e-01
2.755063049293083877e-01
2.755063049293083877e-01
2.800917080626671996e-01
2.800917080626671996e-01
2.800917080626671996e-01
2.735957202904088503e-01
2.735957202904088503e-01
2.693924340848299348e-01
2.693924340848299348e-01
2.693924340848299348e-01
2.774168895682078695e-01
2.774168895682078695e-01
2.705387848681696794e-01
2.705387848681696794e-01
2.705387848681696794e-01
2.670997325181505566e-01
2.670997325181505566e-01
2.690103171570500384e-01
2.690103171570500384e-01
2.690103171570500384e-01
2.663354986625907639e-01
2.663354986625907639e-01
2.613679786014520556e-01
2.613679786014520556e-01
2.613679786014520556e-01
2.628964463125716411e-01
2.628964463125716411e-01
2.644249140236912266e-01
2.644249140236912266e-01
2.644249140236912266e-01
2.541077569736339137e-01
2.541077569736339137e-01
2.617500955292319520e-01
2.617500955292319520e-01
2.617500955292319520e-01
2.548719908291937064e-01
2.548719908291937064e-01
2.640427970959113302e-01
2.640427970959113302e-01
2.640427970959113302e-01
2.560183416125334510e-01
2.560183416125334510e-01
2.609858616736721593e-01
2.609858616736721593e-01
2.609858616736721593e-01
2.552541077569736583e-01
2.552541077569736583e-01
2.502865876958349500e-01
2.502865876958349500e-01
2.502865876958349500e-01
2.476117692013756200e-01
2.476117692013756200e-01
2.510508215513947428e-01
2.510508215513947428e-01
2.510508215513947428e-01
2.476117692013756200e-01
2.476117692013756200e-01
2.434084829957967044e-01
2.434084829957967044e-01
2.434084829957967044e-01
2.468475353458158272e-01
2.468475353458158272e-01
2.388230798624378926e-01
2.388230798624378926e-01
2.403515475735575058e-01
2.403515475735575058e-01
2.403515475735575058e-01
2.479938861291555163e-01
2.479938861291555163e-01
2.418800152846771190e-01
2.418800152846771190e-01
2.418800152846771190e-01
2.514329384791746391e-01
2.514329384791746391e-01
2.372946121513183071e-01
2.372946121513183071e-01
2.372946121513183071e-01
2.418800152846771190e-01
2.418800152846771190e-01
2.399694306457776094e-01
2.399694306457776094e-01
2.399694306457776094e-01
2.319449751623997025e-01
2.319449751623997025e-01
2.388230798624378926e-01
2.388230798624378926e-01
2.388230798624378926e-01
2.353840275124187975e-01
2.353840275124187975e-01
2.388230798624378926e-01
2.388230798624378926e-01
2.388230798624378926e-01
2.395873137179977130e-01
2.395873137179977130e-01
2.330913259457393916e-01
2.330913259457393916e-01
2.330913259457393916e-01
2.307986243790599856e-01
2.307986243790599856e-01
2.235384027512418714e-01
2.235384027512418714e-01
2.235384027512418714e-01
2.258311043179212774e-01
2.258311043179212774e-01
2.323270920901795988e-01
2.323270920901795988e-01
2.323270920901795988e-01
2.334734428735192879e-01
2.334734428735192879e-01
2.334734428735192879e-01
2.334734428735192879e-01
2.334734428735192879e-01
2.227741688956820787e-01
2.227741688956820787e-01
2.277416889568207869e-01
2.277416889568207869e-01
2.277416889568207869e-01
2.327092090179594952e-01
2.327092090179594952e-01
2.262132212457011737e-01
2.262132212457011737e-01
2.262132212457011737e-01
2.342376767290791084e-01
2.342376767290791084e-01
2.220099350401222860e-01
2.220099350401222860e-01
2.220099350401222860e-01
2.193351165456629837e-01
2.193351165456629837e-01
2.285059228123805797e-01
2.285059228123805797e-01
2.285059228123805797e-01
2.193351165456629837e-01
2.193351165456629837e-01
2.197172334734428800e-01
2.197172334734428800e-01
2.197172334734428800e-01
2.216278181123423896e-01
2.216278181123423896e-01
2.143675964845242754e-01
2.143675964845242754e-01
2.143675964845242754e-01
2.189529996178830595e-01
2.189529996178830595e-01
2.078716087122659539e-01
2.078716087122659539e-01
2.078716087122659539e-01
2.094000764233855671e-01
2.094000764233855671e-01
2.178066488345433704e-01
2.178066488345433704e-01
2.178066488345433704e-01
2.162781811234237572e-01
2.162781811234237572e-01
2.078716087122659539e-01
2.078716087122659539e-01
2.078716087122659539e-01
2.063431410011463407e-01
2.063431410011463407e-01
2.155139472678639645e-01
2.155139472678639645e-01
2.155139472678639645e-01
2.128391287734046622e-01
2.128391287734046622e-01
2.029040886511272457e-01
2.029040886511272457e-01
2.029040886511272457e-01
2.059610240733664444e-01
2.059610240733664444e-01
2.036683225066870384e-01
2.036683225066870384e-01
2.036683225066870384e-01
2.036683225066870384e-01
2.036683225066870384e-01
2.032862055789071420e-01
2.032862055789071420e-01
2.032862055789071420e-01
2.051967902178066516e-01
2.051967902178066516e-01
2.025219717233473493e-01
2.025219717233473493e-01
2.025219717233473493e-01
1.994650363011081506e-01
1.994650363011081506e-01
1.941153993121895183e-01
1.941153993121895183e-01
1.941153993121895183e-01
2.029040886511272457e-01
2.029040886511272457e-01
1.990829193733282265e-01
1.990829193733282265e-01
1.990829193733282265e-01
2.063431410011463407e-01
2.063431410011463407e-01
1.941153993121895183e-01
1.941153993121895183e-01
1.941153993121895183e-01
1.937332823844096219e-01
1.937332823844096219e-01
1.998471532288880470e-01
1.998471532288880470e-01
1.998471532288880470e-01
1.948796331677493388e-01
1.948796331677493388e-01
1.987008024455483302e-01
1.987008024455483302e-01
1.987008024455483302e-01
1.960259839510890278e-01
1.960259839510890278e-01
1.868551776843714041e-01
1.868551776843714041e-01
1.868551776843714041e-01
1.876194115399312246e-01
1.876194115399312246e-01
1.872372946121513282e-01
1.872372946121513282e-01
1.872372946121513282e-01
1.880015284677111209e-01
1.880015284677111209e-01
1.922048146732900364e-01
1.922048146732900364e-01
1.922048146732900364e-01
1.891478792510508100e-01
1.891478792510508100e-01
1.967902178066488483e-01
1.967902178066488483e-01
1.967902178066488483e-01
1.941153993121895183e-01
1.941153993121895183e-01
1.914405808177302160e-01
1.914405808177302160e-01
1.914405808177302160e-01
1.807413068398930067e-01
1.807413068398930067e-01
1.780664883454337044e-01
1.780664883454337044e-01
1.780664883454337044e-01
1.792128391287733935e-01
1.792128391287733935e-01
1.864730607565915077e-01
1.864730607565915077e-01
1.864730607565915077e-01
1.880015284677111209e-01
1.880015284677111209e-01
1.815055406954527994e-01
1.815055406954527994e-01
1.815055406954527994e-01
1.941153993121895183e-01
1.941153993121895183e-01
1.811234237676729031e-01
1.811234237676729031e-01
1.811234237676729031e-01
1.765380206343140912e-01
1.765380206343140912e-01
1.803591899121131104e-01
1.803591899121131104e-01
1.803591899121131104e-01
1.815055406954527994e-01
1.815055406954527994e-01
1.769201375620939876e-01
1.769201375620939876e-01
1.769201375620939876e-01
1.822697745510126199e-01
1.822697745510126199e-01
1.883836453954910173e-01
1.883836453954910173e-01
1.799770729843332140e-01
1.799770729843332140e-01
1.799770729843332140e-01
1.708062667176155902e-01
1.708062667176155902e-01
1.807413068398930067e-01
1.807413068398930067e-01
