2.468475353458158272e-01
2.468475353458158272e-01
2.468475353458158272e-01
2.434084829957967044e-01
2.434084829957967044e-01
2.380588460068780998e-01
2.380588460068780998e-01
2.380588460068780998e-01
2.399694306457776094e-01
2.399694306457776094e-01
2.472296522735957236e-01
2.472296522735957236e-01
2.472296522735957236e-01
2.369124952235384107e-01
2.369124952235384107e-01
2.254489873901413810e-01
2.254489873901413810e-01
2.254489873901413810e-01
2.411157814291172985e-01
2.411157814291172985e-01
2.346197936568590048e-01
2.346197936568590048e-01
2.346197936568590048e-01
2.338555598012991843e-01
2.338555598012991843e-01
2.307986243790599856e-01
2.307986243790599856e-01
2.307986243790599856e-01
2.365303782957585144e-01
2.365303782957585144e-01
2.216278181123423896e-01
2.216278181123423896e-01
2.216278181123423896e-01
2.158960641956438609e-01
2.158960641956438609e-01
2.220099350401222860e-01
2.220099350401222860e-01
2.220099350401222860e-01
2.204814673290026728e-01
2.204814673290026728e-01
2.281238058846006833e-01
2.281238058846006833e-01
2.281238058846006833e-01
2.258311043179212774e-01
2.258311043179212774e-01
2.185708826901031632e-01
2.185708826901031632e-01
2.185708826901031632e-01
2.166602980512036813e-01
2.166602980512036813e-01
2.166602980512036813e-01
2.166602980512036813e-01
2.166602980512036813e-01
2.082537256400458503e-01
2.082537256400458503e-01
2.220099350401222860e-01
2.220099350401222860e-01
2.220099350401222860e-01
2.178066488345433704e-01
2.178066488345433704e-01
1.994650363011081506e-01
1.994650363011081506e-01
1.994650363011081506e-01
2.158960641956438609e-01
2.158960641956438609e-01
2.155139472678639645e-01
2.155139472678639645e-01
2.155139472678639645e-01
1.967902178066488483e-01
1.967902178066488483e-01
2.162781811234237572e-01
2.162781811234237572e-01
2.162781811234237572e-01
1.937332823844096219e-01
1.937332823844096219e-01
2.017577378677875566e-01
2.017577378677875566e-01
2.017577378677875566e-01
1.979365685899885374e-01
1.979365685899885374e-01
2.002292701566679434e-01
2.002292701566679434e-01
2.002292701566679434e-01
2.013756209400076325e-01
2.013756209400076325e-01
1.849445930454719222e-01
1.849445930454719222e-01
1.849445930454719222e-01
1.967902178066488483e-01
1.967902178066488483e-01
1.933511654566297255e-01
1.933511654566297255e-01
1.933511654566297255e-01
1.925869316010699328e-01
1.925869316010699328e-01
1.780664883454337044e-01
1.780664883454337044e-01
1.780664883454337044e-01
2.021398547955674529e-01
2.021398547955674529e-01
1.822697745510126199e-01
1.822697745510126199e-01
1.822697745510126199e-01
1.746274359954146094e-01
1.746274359954146094e-01
1.956438670233091315e-01
1.956438670233091315e-01
1.956438670233091315e-01
1.773022544898739117e-01
1.773022544898739117e-01
1.811234237676729031e-01
1.811234237676729031e-01
1.811234237676729031e-01
1.864730607565915077e-01
1.864730607565915077e-01
1.753916698509744021e-01
1.753916698509744021e-01
1.753916698509744021e-01
1.857088269010317150e-01
1.857088269010317150e-01
1.669850974398165711e-01
1.669850974398165711e-01
1.669850974398165711e-01
1.792128391287733935e-01
1.792128391287733935e-01
1.654566297286969856e-01
1.654566297286969856e-01
1.654566297286969856e-01
1.643102789453572687e-01
1.643102789453572687e-01
1.692777990064959770e-01
1.692777990064959770e-01
1.692777990064959770e-01
1.688956820787160806e-01
1.688956820787160806e-01
1.551394726786396727e-01
1.551394726786396727e-01
1.551394726786396727e-01
1.780664883454337044e-01
1.780664883454337044e-01
1.581964081008788714e-01
1.581964081008788714e-01
1.581964081008788714e-01
1.711883836453954866e-01
1.711883836453954866e-01
1.765380206343140912e-01
1.765380206343140912e-01
1.765380206343140912e-01
1.669850974398165711e-01
1.669850974398165711e-01
1.627818112342376833e-01
1.627818112342376833e-01
1.627818112342376833e-01
1.654566297286969856e-01
1.654566297286969856e-01
1.459686664119220489e-01
1.459686664119220489e-01
1.459686664119220489e-01
1.547573557508597764e-01
1.547573557508597764e-01
1.700420328620557975e-01
1.700420328620557975e-01
1.700420328620557975e-01
1.501719526175009645e-01
1.501719526175009645e-01
1.620175773786778628e-01
1.620175773786778628e-01
1.620175773786778628e-01
1.421474971341230298e-01
1.421474971341230298e-01
1.562858234619793618e-01
1.562858234619793618e-01
1.562858234619793618e-01
1.448223156285823598e-01
1.448223156285823598e-01
1.390905617118838311e-01
1.390905617118838311e-01
1.390905617118838311e-01
1.501719526175009645e-01
1.501719526175009645e-01
1.474971341230416622e-01
1.474971341230416622e-01
1.474971341230416622e-01
1.532288880397401631e-01
1.532288880397401631e-01
1.528467711119602668e-01
1.528467711119602668e-01
1.478792510508215585e-01
1.478792510508215585e-01
1.478792510508215585e-01
1.505540695452808608e-01
1.505540695452808608e-01
1.490256018341612476e-01
1.490256018341612476e-01
1.490256018341612476e-01
1.283912877340466219e-01
1.283912877340466219e-01
1.417653802063431334e-01
1.417653802063431334e-01
1.417653802063431334e-01
1.306839893007260278e-01
1.306839893007260278e-01
1.379442109285441420e-01
1.379442109285441420e-01
1.379442109285441420e-01
1.341230416507451229e-01
1.341230416507451229e-01
1.390905617118838311e-01
1.390905617118838311e-01
1.390905617118838311e-01
1.215131830340084040e-01
1.215131830340084040e-01
1.379442109285441420e-01
1.379442109285441420e-01
1.379442109285441420e-01
1.222774168895682106e-01
1.222774168895682106e-01
1.310661062285059242e-01
1.310661062285059242e-01
1.310661062285059242e-01
1.383263278563240384e-01
1.383263278563240384e-01
1.325945739396255374e-01
1.325945739396255374e-01
1.325945739396255374e-01
1.325945739396255374e-01
1.325945739396255374e-01
1.333588077951853301e-01
1.333588077951853301e-01
1.333588077951853301e-01
1.203668322506687011e-01
1.203668322506687011e-01
1.402369124952235480e-01
1.402369124952235480e-01
1.402369124952235480e-01
1.410011463507833407e-01
1.410011463507833407e-01
1.176920137562093988e-01
1.176920137562093988e-01
1.176920137562093988e-01
1.184562476117692054e-01
1.184562476117692054e-01
1.345051585785250192e-01
1.345051585785250192e-01
1.345051585785250192e-01
1.245701184562476166e-01
1.245701184562476166e-01
1.165456629728696958e-01
1.165456629728696958e-01
1.165456629728696958e-01
1.165456629728696958e-01
1.165456629728696958e-01
1.402369124952235480e-01
1.402369124952235480e-01
1.402369124952235480e-01
1.161635460450897994e-01
1.161635460450897994e-01
1.153993121895299928e-01
1.153993121895299928e-01
1.153993121895299928e-01
1.337409247229652265e-01
1.337409247229652265e-01
1.241880015284677063e-01
1.241880015284677063e-01
1.241880015284677063e-01
1.241880015284677063e-01
1.241880015284677063e-01
1.291555215896064146e-01
1.291555215896064146e-01
1.291555215896064146e-01
1.337409247229652265e-01
1.337409247229652265e-01
1.325945739396255374e-01
1.325945739396255374e-01
1.325945739396255374e-01
1.260985861673672159e-01
1.260985861673672159e-01
1.207489491784486113e-01
1.207489491784486113e-01
1.207489491784486113e-01
1.295376385173863110e-01
1.295376385173863110e-01
1.100496752006113882e-01
1.100496752006113882e-01
1.100496752006113882e-01
1.119602598395108839e-01
1.119602598395108839e-01
1.192204814673289981e-01
1.192204814673289981e-01
1.192204814673289981e-01
1.215131830340084040e-01
1.215131830340084040e-01
1.089033244172716852e-01
1.089033244172716852e-01
1.089033244172716852e-01
1.199847153228888047e-01
1.199847153228888047e-01
1.180741306839892951e-01
1.180741306839892951e-01
1.180741306839892951e-01
1.119602598395108839e-01
1.119602598395108839e-01
1.024073366450133776e-01
1.024073366450133776e-01
1.024073366450133776e-01
1.280091708062667255e-01
1.280091708062667255e-01
1.127244936950706905e-01
1.127244936950706905e-01
1.127244936950706905e-01
1.196025983951089083e-01
1.196025983951089083e-01
1.131066106228505869e-01
1.131066106228505869e-01
1.131066106228505869e-01
1.325945739396255374e-01
1.325945739396255374e-01
1.150171952617500964e-01
1.150171952617500964e-01
1.150171952617500964e-01
1.092854413450515816e-01
1.092854413450515816e-01
1.276270538784868291e-01
1.276270538784868291e-01
1.276270538784868291e-01
1.283912877340466219e-01
1.283912877340466219e-01
1.184562476117692054e-01
1.184562476117692054e-01
1.184562476117692054e-01
1.199847153228888047e-01
1.199847153228888047e-01
1.104317921283912846e-01
1.104317921283912846e-01
1.104317921283912846e-01
1.077569736339319822e-01
1.077569736339319822e-01
1.222774168895682106e-01
1.222774168895682106e-01
1.222774168895682106e-01
1.161635460450897994e-01
1.161635460450897994e-01
1.073748567061520859e-01
1.073748567061520859e-01
1.073748567061520859e-01
1.142529614061902898e-01
1.142529614061902898e-01
1.157814291173099031e-01
1.157814291173099031e-01
1.157814291173099031e-01
1.089033244172716852e-01
1.089033244172716852e-01
1.001146350783339717e-01
1.001146350783339717e-01
1.001146350783339717e-01
1.115781429117309875e-01
1.115781429117309875e-01
1.027894535727932740e-01
1.027894535727932740e-01
1.027894535727932740e-01
1.008788689338937783e-01
1.008788689338937783e-01
1.123423767672907941e-01
1.123423767672907941e-01
1.123423767672907941e-01
1.207489491784486113e-01
1.207489491784486113e-01
1.146350783339702001e-01
1.146350783339702001e-01
1.146350783339702001e-01
1.096675582728314918e-01
1.096675582728314918e-01
1.043179212839128733e-01
1.043179212839128733e-01
1.043179212839128733e-01
1.134887275506304971e-01
1.134887275506304971e-01
1.138708444784103935e-01
1.138708444784103935e-01
1.138708444784103935e-01
1.039358043561329770e-01
1.039358043561329770e-01
1.047000382116927836e-01
1.047000382116927836e-01
1.047000382116927836e-01
1.004967520061138680e-01
1.004967520061138680e-01
1.073748567061520859e-01
1.073748567061520859e-01
1.073748567061520859e-01
1.146350783339702001e-01
1.146350783339702001e-01
1.234237676729079136e-01
1.234237676729079136e-01
1.115781429117309875e-01
1.115781429117309875e-01
1.115781429117309875e-01
1.039358043561329770e-01
1.039358043561329770e-01
1.173098968284295024e-01
1.173098968284295024e-01
1.173098968284295024e-01
1.108139090561711948e-01
1.108139090561711948e-01
1.184562476117692054e-01
1.184562476117692054e-01
1.184562476117692054e-01
1.165456629728696958e-01
1.165456629728696958e-01
1.234237676729079136e-01
1.234237676729079136e-01
1.234237676729079136e-01
1.222774168895682106e-01
1.222774168895682106e-01
1.176920137562093988e-01
1.176920137562093988e-01
1.176920137562093988e-01
1.268628200229270087e-01
1.268628200229270087e-01
1.375620940007642456e-01
1.375620940007642456e-01
1.375620940007642456e-01
1.440580817730225394e-01
1.440580817730225394e-01
1.341230416507451229e-01
1.341230416507451229e-01
1.341230416507451229e-01
1.352693924340848397e-01
1.352693924340848397e-01
1.455865494841421526e-01
1.455865494841421526e-01
1.455865494841421526e-01
1.643102789453572687e-01
1.643102789453572687e-01
1.623996943064577869e-01
1.623996943064577869e-01
1.623996943064577869e-01
1.551394726786396727e-01
1.551394726786396727e-01
1.646923958731371929e-01
1.646923958731371929e-01
1.646923958731371929e-01
1.937332823844096219e-01
1.937332823844096219e-01
1.841803591899121018e-01
1.841803591899121018e-01
1.841803591899121018e-01
1.990829193733282265e-01
1.990829193733282265e-01
1.979365685899885374e-01
1.979365685899885374e-01
1.979365685899885374e-01
2.220099350401222860e-01
2.220099350401222860e-01
2.235384027512418714e-01
2.235384027512418714e-01
2.235384027512418714e-01
2.457011845624761104e-01
2.457011845624761104e-01
2.395873137179977130e-01
2.395873137179977130e-01
2.395873137179977130e-01
2.460833014902560067e-01
2.460833014902560067e-01
2.586931601069927256e-01
2.586931601069927256e-01
2.586931601069927256e-01
2.697745510126098312e-01
2.697745510126098312e-01
2.881161635460450787e-01
2.881161635460450787e-01
2.881161635460450787e-01
2.865876958349254933e-01
2.865876958349254933e-01
2.972869698127627025e-01
2.972869698127627025e-01
2.972869698127627025e-01
3.079862437905999117e-01
3.079862437905999117e-01
3.076041268628200154e-01
3.076041268628200154e-01
3.076041268628200154e-01
3.221245701184562438e-01
3.221245701184562438e-01
3.221245701184562438e-01
3.221245701184562438e-01
3.221245701184562438e-01
3.297669086740542821e-01
3.297669086740542821e-01
3.332059610240733494e-01
3.332059610240733494e-01
3.332059610240733494e-01
3.477264042797095778e-01
3.477264042797095778e-01
3.515475735575085969e-01
3.515475735575085969e-01
3.515475735575085969e-01
3.721818876576232227e-01
3.721818876576232227e-01
3.748567061520825527e-01
3.748567061520825527e-01
3.748567061520825527e-01
3.905235001910584702e-01
3.905235001910584702e-01
3.821169277799006392e-01
3.821169277799006392e-01
3.821169277799006392e-01
3.889950324799388848e-01
3.889950324799388848e-01
3.893771494077187811e-01
3.893771494077187811e-01
3.893771494077187811e-01
4.138326327856324260e-01
4.138326327856324260e-01
3.989300726022163013e-01
3.989300726022163013e-01
3.989300726022163013e-01
4.123041650745127851e-01
4.123041650745127851e-01
4.241497898356897389e-01
4.241497898356897389e-01
4.241497898356897389e-01
4.111578142911730960e-01
4.111578142911730960e-01
4.195643867023309270e-01
4.195643867023309270e-01
4.195643867023309270e-01
4.291173098968284472e-01
4.291173098968284472e-01
4.428735192969048273e-01
4.428735192969048273e-01
4.428735192969048273e-01
4.306457776079480326e-01
4.306457776079480326e-01
4.394344669468857600e-01
4.394344669468857600e-01
4.394344669468857600e-01
4.302636606801681363e-01
4.302636606801681363e-01
4.386702330913259673e-01
4.386702330913259673e-01
4.386702330913259673e-01
4.535727932747420921e-01
4.535727932747420921e-01
4.451662208635842610e-01
4.451662208635842610e-01
4.451662208635842610e-01
4.398165838746656564e-01
4.398165838746656564e-01
4.612151318303400749e-01
4.612151318303400749e-01
4.612151318303400749e-01
4.486052732136033838e-01
4.486052732136033838e-01
4.524264424914023475e-01
4.524264424914023475e-01
4.524264424914023475e-01
4.508979747802827620e-01
4.508979747802827620e-01
4.558654948414214703e-01
4.558654948414214703e-01
4.558654948414214703e-01
4.627435995414596603e-01
4.627435995414596603e-01
4.466946885747038465e-01
4.466946885747038465e-01
4.466946885747038465e-01
4.638899503247994049e-01
4.638899503247994049e-01
4.600687810470003858e-01
4.600687810470003858e-01
4.600687810470003858e-01
4.585403133358808003e-01
4.585403133358808003e-01
4.570118456247611594e-01
4.570118456247611594e-01
4.570118456247611594e-01
4.696217042414979059e-01
4.696217042414979059e-01
4.692395873137180096e-01
4.692395873137180096e-01
4.692395873137180096e-01
4.577760794803209521e-01
4.577760794803209521e-01
4.722965227359571805e-01
4.722965227359571805e-01
4.722965227359571805e-01
4.722965227359571805e-01
4.722965227359571805e-01
4.627435995414596603e-01
4.627435995414596603e-01
4.627435995414596603e-01
4.684753534581582168e-01
4.684753534581582168e-01
4.589224302636606967e-01
4.589224302636606967e-01
4.551012609858616775e-01
4.551012609858616775e-01
4.551012609858616775e-01
4.623614826136797640e-01
4.623614826136797640e-01
4.703859380970576987e-01
4.703859380970576987e-01
4.703859380970576987e-01
4.505158578525028656e-01
4.505158578525028656e-01
4.688574703859381132e-01
4.688574703859381132e-01
4.688574703859381132e-01
4.669468857470385759e-01
4.669468857470385759e-01
4.715322888803973878e-01
4.715322888803973878e-01
4.715322888803973878e-01
4.516622086358425547e-01
4.516622086358425547e-01
4.585403133358808003e-01
4.585403133358808003e-01
4.585403133358808003e-01
4.508979747802827620e-01
4.508979747802827620e-01
4.581581964081009040e-01
4.581581964081009040e-01
4.581581964081009040e-01
4.512800917080626584e-01
4.512800917080626584e-01
4.455483377913641574e-01
4.455483377913641574e-01
4.455483377913641574e-01
4.566297286969812630e-01
4.566297286969812630e-01
4.451662208635842610e-01
4.451662208635842610e-01
4.451662208635842610e-01
4.562476117692013666e-01
4.562476117692013666e-01
4.455483377913641574e-01
4.455483377913641574e-01
4.455483377913641574e-01
4.486052732136033838e-01
4.486052732136033838e-01
4.577760794803209521e-01
4.577760794803209521e-01
4.577760794803209521e-01
4.375238823079862227e-01
4.375238823079862227e-01
4.554833779136415739e-01
4.554833779136415739e-01
4.554833779136415739e-01
4.512800917080626584e-01
4.512800917080626584e-01
4.558654948414214703e-01
4.558654948414214703e-01
4.558654948414214703e-01
4.356132976690867409e-01
4.356132976690867409e-01
4.447841039358043647e-01
4.447841039358043647e-01
4.447841039358043647e-01
4.337027130301872591e-01
4.337027130301872591e-01
4.283530760412686544e-01
4.283530760412686544e-01
4.283530760412686544e-01
4.401987008024455528e-01
4.401987008024455528e-01
4.424914023691249310e-01
4.424914023691249310e-01
4.424914023691249310e-01
4.317921283912877217e-01
4.317921283912877217e-01
4.237676729079098426e-01
4.237676729079098426e-01
4.237676729079098426e-01
4.188001528467711343e-01
4.188001528467711343e-01
4.310278945357279290e-01
4.310278945357279290e-01
4.310278945357279290e-01
4.260603744745892207e-01
4.260603744745892207e-01
4.165074512800917006e-01
4.165074512800917006e-01
4.165074512800917006e-01
4.279709591134887026e-01
4.279709591134887026e-01
4.126862820022926814e-01
4.126862820022926814e-01
4.126862820022926814e-01
4.126862820022926814e-01
4.126862820022926814e-01
4.084829957967138214e-01
4.084829957967138214e-01
4.084829957967138214e-01
3.947267863966373858e-01
3.947267863966373858e-01
3.928162017577378484e-01
3.928162017577378484e-01
3.928162017577378484e-01
4.027512418800152649e-01
4.027512418800152649e-01
3.939625525410775930e-01
3.939625525410775930e-01
3.939625525410775930e-01
3.847917462743599692e-01
3.847917462743599692e-01
3.805884600687810537e-01
3.805884600687810537e-01
3.805884600687810537e-01
3.912877340466182630e-01
3.912877340466182630e-01
3.752388230798624491e-01
3.752388230798624491e-01
3.752388230798624491e-01
3.649216660298051362e-01
3.649216660298051362e-01
3.729461215131830154e-01
3.729461215131830154e-01
3.729461215131830154e-01
3.588077951853266834e-01
3.588077951853266834e-01
3.683607183798242035e-01
3.683607183798242035e-01
3.683607183798242035e-01
3.484906381352693705e-01
3.484906381352693705e-01
3.611004967520061171e-01
3.611004967520061171e-01
3.611004967520061171e-01
3.442873519296905105e-01
3.442873519296905105e-01
3.557508597630875125e-01
3.557508597630875125e-01
3.557508597630875125e-01
3.347344287351929903e-01
3.347344287351929903e-01
3.286205578907145375e-01
3.286205578907145375e-01
3.286205578907145375e-01
3.263278563240351593e-01
3.263278563240351593e-01
3.362628964463125758e-01
3.362628964463125758e-01
3.362628964463125758e-01
3.202139854795567619e-01
3.202139854795567619e-01
3.225066870462361401e-01
3.225066870462361401e-01
3.225066870462361401e-01
3.228888039740160365e-01
3.228888039740160365e-01
3.060756591517004299e-01
3.060756591517004299e-01
3.060756591517004299e-01
2.988154375238822880e-01
2.988154375238822880e-01
3.095147115017195527e-01
3.095147115017195527e-01
3.095147115017195527e-01
3.148643484906381573e-01
3.148643484906381573e-01
3.106610622850592418e-01
3.106610622850592418e-01
3.106610622850592418e-01
2.949942682460833243e-01
2.949942682460833243e-01
3.041650745128008926e-01
3.041650745128008926e-01
3.041650745128008926e-01
3.106610622850592418e-01
3.106610622850592418e-01
2.911730989682843052e-01
2.911730989682843052e-01
2.911730989682843052e-01
2.869698127627053896e-01
2.869698127627053896e-01
2.961406190294230134e-01
2.961406190294230134e-01
2.961406190294230134e-01
2.980512036683224952e-01
2.980512036683224952e-01
2.900267481849446161e-01
2.900267481849446161e-01
2.900267481849446161e-01
2.732136033626289540e-01
2.732136033626289540e-01
2.797095911348873032e-01
2.797095911348873032e-01
2.797095911348873032e-01
2.758884218570882840e-01
2.758884218570882840e-01
2.732136033626289540e-01
2.732136033626289540e-01
2.732136033626289540e-01
2.690103171570500384e-01
2.690103171570500384e-01
2.758884218570882840e-01
2.758884218570882840e-01
2.739778372181887467e-01
2.739778372181887467e-01
2.739778372181887467e-01
2.625143293847917447e-01
2.625143293847917447e-01
2.648070309514711229e-01
2.648070309514711229e-01
2.648070309514711229e-01
2.651891478792510748e-01
2.651891478792510748e-01
2.766526557126480768e-01
2.766526557126480768e-01
2.766526557126480768e-01
2.728314864348490576e-01
2.728314864348490576e-01
2.602216278181123665e-01
2.602216278181123665e-01
2.602216278181123665e-01
2.663354986625907639e-01
2.663354986625907639e-01
2.590752770347726219e-01
2.590752770347726219e-01
2.590752770347726219e-01
2.690103171570500384e-01
2.690103171570500384e-01
2.644249140236912266e-01
2.644249140236912266e-01
2.644249140236912266e-01
2.640427970959113302e-01
2.640427970959113302e-01
2.690103171570500384e-01
2.690103171570500384e-01
2.690103171570500384e-01
2.602216278181123665e-01
2.602216278181123665e-01
2.464654184180359309e-01
2.464654184180359309e-01
2.464654184180359309e-01
2.602216278181123665e-01
2.602216278181123665e-01
2.495223538402751295e-01
2.495223538402751295e-01
2.495223538402751295e-01
2.457011845624761104e-01
2.457011845624761104e-01
2.457011845624761104e-01
2.457011845624761104e-01
2.457011845624761104e-01
2.388230798624378926e-01
2.388230798624378926e-01
2.388230798624378926e-01
2.388230798624378926e-01
2.388230798624378926e-01
2.556362246847535546e-01
2.556362246847535546e-01
2.479938861291555163e-01
2.479938861291555163e-01
2.479938861291555163e-01
2.334734428735192879e-01
2.334734428735192879e-01
2.468475353458158272e-01
2.468475353458158272e-01
2.468475353458158272e-01
2.315628582346198061e-01
2.315628582346198061e-01
2.311807413068398820e-01
2.311807413068398820e-01
2.311807413068398820e-01
2.323270920901795988e-01
2.323270920901795988e-01
2.307986243790599856e-01
2.307986243790599856e-01
2.307986243790599856e-01
2.231562858234619751e-01
2.231562858234619751e-01
2.216278181123423896e-01
2.216278181123423896e-01
2.216278181123423896e-01
2.277416889568207869e-01
2.277416889568207869e-01
2.353840275124187975e-01
2.353840275124187975e-01
2.353840275124187975e-01
2.342376767290791084e-01
2.342376767290791084e-01
2.265953381734810979e-01
2.265953381734810979e-01
2.265953381734810979e-01
2.170424149789835777e-01
2.170424149789835777e-01
2.185708826901031632e-01
2.185708826901031632e-01
2.185708826901031632e-01
2.262132212457011737e-01
2.262132212457011737e-01
2.273595720290408906e-01
2.273595720290408906e-01
2.273595720290408906e-01
2.139854795567443513e-01
2.139854795567443513e-01
2.170424149789835777e-01
2.170424149789835777e-01
2.170424149789835777e-01
2.189529996178830595e-01
2.189529996178830595e-01
2.170424149789835777e-01
2.170424149789835777e-01
2.170424149789835777e-01
1.983186855177684338e-01
1.983186855177684338e-01
2.155139472678639645e-01
2.155139472678639645e-01
2.155139472678639645e-01
2.044325563622468589e-01
2.044325563622468589e-01
2.116927779900649731e-01
2.116927779900649731e-01
2.116927779900649731e-01
1.925869316010699328e-01
1.925869316010699328e-01
2.082537256400458503e-01
2.082537256400458503e-01
2.082537256400458503e-01
1.837982422621322054e-01
1.837982422621322054e-01
2.082537256400458503e-01
2.082537256400458503e-01
2.082537256400458503e-01
1.990829193733282265e-01
1.990829193733282265e-01
2.048146732900267553e-01
2.048146732900267553e-01
2.048146732900267553e-01
2.009935040122277361e-01
2.009935040122277361e-01
1.834161253343523090e-01
1.834161253343523090e-01
1.834161253343523090e-01
1.807413068398930067e-01
1.807413068398930067e-01
1.960259839510890278e-01
1.960259839510890278e-01
1.960259839510890278e-01
1.761559037065341948e-01
1.761559037065341948e-01
1.853267099732518186e-01
1.853267099732518186e-01
1.853267099732518186e-01
1.853267099732518186e-01
1.853267099732518186e-01
1.944975162399694424e-01
1.944975162399694424e-01
1.944975162399694424e-01
1.845624761176920259e-01
1.845624761176920259e-01
1.792128391287733935e-01
1.792128391287733935e-01
1.792128391287733935e-01
1.677493312953763915e-01
1.677493312953763915e-01
1.857088269010317150e-01
1.857088269010317150e-01
1.857088269010317150e-01
1.715705005731753829e-01
1.715705005731753829e-01
1.723347344287352034e-01
1.723347344287352034e-01
1.723347344287352034e-01
1.669850974398165711e-01
1.669850974398165711e-01
1.780664883454337044e-01
1.780664883454337044e-01
1.780664883454337044e-01
1.746274359954146094e-01
1.746274359954146094e-01
1.631639281620175796e-01
1.631639281620175796e-01
1.631639281620175796e-01
1.681314482231562879e-01
1.681314482231562879e-01
1.631639281620175796e-01
1.631639281620175796e-01
1.631639281620175796e-01
1.700420328620557975e-01
1.700420328620557975e-01
1.578142911730989750e-01
1.578142911730989750e-01
1.578142911730989750e-01
1.616354604508979664e-01
1.616354604508979664e-01
1.520825372564004463e-01
1.520825372564004463e-01
1.520825372564004463e-01
1.608712265953381737e-01
1.608712265953381737e-01
1.604891096675582773e-01
1.604891096675582773e-01
1.604891096675582773e-01
1.639281620175773724e-01
1.639281620175773724e-01
1.559037065341994654e-01
1.559037065341994654e-01
1.559037065341994654e-01
1.524646541841803704e-01
1.524646541841803704e-01
1.585785250286587678e-01
1.585785250286587678e-01
1.486434849063813513e-01
1.486434849063813513e-01
1.486434849063813513e-01
1.501719526175009645e-01
1.501719526175009645e-01
1.471150171952617380e-01
1.471150171952617380e-01
1.471150171952617380e-01
1.379442109285441420e-01
1.379442109285441420e-01
1.532288880397401631e-01
1.532288880397401631e-01
1.532288880397401631e-01
1.497898356897210681e-01
1.497898356897210681e-01
1.360336262896446324e-01
1.360336262896446324e-01
1.360336262896446324e-01
1.524646541841803704e-01
1.524646541841803704e-01
1.329766908674054338e-01
1.329766908674054338e-01
1.329766908674054338e-01
1.352693924340848397e-01
1.352693924340848397e-01
1.417653802063431334e-01
1.417653802063431334e-01
1.417653802063431334e-01
1.345051585785250192e-01
1.345051585785250192e-01
1.333588077951853301e-01
1.333588077951853301e-01
1.333588077951853301e-01
1.322124570118456133e-01
1.322124570118456133e-01
1.505540695452808608e-01
1.505540695452808608e-01
1.505540695452808608e-01
1.387084447841039347e-01
1.387084447841039347e-01
1.291555215896064146e-01
1.291555215896064146e-01
1.291555215896064146e-01
1.295376385173863110e-01
1.295376385173863110e-01
1.337409247229652265e-01
1.337409247229652265e-01
1.337409247229652265e-01
1.211310661062285077e-01
1.211310661062285077e-01
1.440580817730225394e-01
1.440580817730225394e-01
1.440580817730225394e-01
1.199847153228888047e-01
1.199847153228888047e-01
1.268628200229270087e-01
1.268628200229270087e-01
1.268628200229270087e-01
1.314482231562858205e-01
1.314482231562858205e-01
1.364157432174245288e-01
1.364157432174245288e-01
1.364157432174245288e-01
1.402369124952235480e-01
1.402369124952235480e-01
1.238058846006878100e-01
1.238058846006878100e-01
1.238058846006878100e-01
1.161635460450897994e-01
1.161635460450897994e-01
1.173098968284295024e-01
1.173098968284295024e-01
1.173098968284295024e-01
1.215131830340084040e-01
1.215131830340084040e-01
1.348872755063049156e-01
1.348872755063049156e-01
1.348872755063049156e-01
1.318303400840657169e-01
1.318303400840657169e-01
1.257164692395873196e-01
1.257164692395873196e-01
1.257164692395873196e-01
1.157814291173099031e-01
1.157814291173099031e-01
1.207489491784486113e-01
1.207489491784486113e-01
1.207489491784486113e-01
1.318303400840657169e-01
1.318303400840657169e-01
1.173098968284295024e-01
1.173098968284295024e-01
1.173098968284295024e-01
1.161635460450897994e-01
1.161635460450897994e-01
1.268628200229270087e-01
1.268628200229270087e-01
1.268628200229270087e-01
1.287734046618265182e-01
1.287734046618265182e-01
1.215131830340084040e-01
1.215131830340084040e-01
1.215131830340084040e-01
1.161635460450897994e-01
1.161635460450897994e-01
1.150171952617500964e-01
1.150171952617500964e-01
1.150171952617500964e-01
1.257164692395873196e-01
1.257164692395873196e-01
1.207489491784486113e-01
1.207489491784486113e-01
1.207489491784486113e-01
1.299197554451662073e-01
1.299197554451662073e-01
1.066106228505922793e-01
1.066106228505922793e-01
1.066106228505922793e-01
1.196025983951089083e-01
1.196025983951089083e-01
1.234237676729079136e-01
1.234237676729079136e-01
1.234237676729079136e-01
1.249522353840275130e-01
1.249522353840275130e-01
1.226595338173481070e-01
1.226595338173481070e-01
1.226595338173481070e-01
1.264807030951471123e-01
1.264807030951471123e-01
1.066106228505922793e-01
1.066106228505922793e-01
1.066106228505922793e-01
1.069927397783721756e-01
1.069927397783721756e-01
1.092854413450515816e-01
1.092854413450515816e-01
1.092854413450515816e-01
1.134887275506304971e-01
1.134887275506304971e-01
1.085212074894917889e-01
1.085212074894917889e-01
1.085212074894917889e-01
1.226595338173481070e-01
1.226595338173481070e-01
1.192204814673289981e-01
1.192204814673289981e-01
1.192204814673289981e-01
1.203668322506687011e-01
1.203668322506687011e-01
1.050821551394726799e-01
1.050821551394726799e-01
1.050821551394726799e-01
1.027894535727932740e-01
1.027894535727932740e-01
1.085212074894917889e-01
1.085212074894917889e-01
1.085212074894917889e-01
1.153993121895299928e-01
1.153993121895299928e-01
1.043179212839128733e-01
1.043179212839128733e-01
1.043179212839128733e-01
1.222774168895682106e-01
1.222774168895682106e-01
1.131066106228505869e-01
1.131066106228505869e-01
1.131066106228505869e-01
1.100496752006113882e-01
1.100496752006113882e-01
1.203668322506687011e-01
1.203668322506687011e-01
1.203668322506687011e-01
1.165456629728696958e-01
1.165456629728696958e-01
1.012609858616736747e-01
1.012609858616736747e-01
1.012609858616736747e-01
1.184562476117692054e-01
1.184562476117692054e-01
1.119602598395108839e-01
1.119602598395108839e-01
1.119602598395108839e-01
1.058463889950324865e-01
1.058463889950324865e-01
9.973251815055407532e-02
9.973251815055407532e-02
9.973251815055407532e-02
1.184562476117692054e-01
1.184562476117692054e-01
1.119602598395108839e-01
1.119602598395108839e-01
1.119602598395108839e-01
1.035536874283530806e-01
1.035536874283530806e-01
1.119602598395108839e-01
1.119602598395108839e-01
1.119602598395108839e-01
9.667558272831486277e-02
9.667558272831486277e-02
1.134887275506304971e-01
1.134887275506304971e-01
1.031715705005731704e-01
1.031715705005731704e-01
1.031715705005731704e-01
1.196025983951089083e-01
1.196025983951089083e-01
1.192204814673289981e-01
1.192204814673289981e-01
1.192204814673289981e-01
1.199847153228888047e-01
1.199847153228888047e-01
1.153993121895299928e-01
1.153993121895299928e-01
1.153993121895299928e-01
1.111960259839510912e-01
1.111960259839510912e-01
9.935040122277416508e-02
9.935040122277416508e-02
9.935040122277416508e-02
1.073748567061520859e-01
1.073748567061520859e-01
1.077569736339319822e-01
1.077569736339319822e-01
1.077569736339319822e-01
1.089033244172716852e-01
1.089033244172716852e-01
1.004967520061138680e-01
1.004967520061138680e-01
1.004967520061138680e-01
9.705769965609475913e-02
9.705769965609475913e-02
1.039358043561329770e-01
1.039358043561329770e-01
1.039358043561329770e-01
1.016431027894535710e-01
1.016431027894535710e-01
1.096675582728314918e-01
1.096675582728314918e-01
1.096675582728314918e-01
1.138708444784103935e-01
1.138708444784103935e-01
9.552923194497515980e-02
9.552923194497515980e-02
9.552923194497515980e-02
1.218952999617883004e-01
1.218952999617883004e-01
1.253343523118074232e-01
1.253343523118074232e-01
1.253343523118074232e-01
1.180741306839892951e-01
1.180741306839892951e-01
1.043179212839128733e-01
1.043179212839128733e-01
1.043179212839128733e-01
1.272449369507069050e-01
1.272449369507069050e-01
1.062285059228123829e-01
1.062285059228123829e-01
1.062285059228123829e-01
1.115781429117309875e-01
1.115781429117309875e-01
1.375620940007642456e-01
1.375620940007642456e-01
1.375620940007642456e-01
1.188383645395491017e-01
1.188383645395491017e-01
1.306839893007260278e-01
1.306839893007260278e-01
1.306839893007260278e-01
1.436759648452426430e-01
1.436759648452426430e-01
1.348872755063049156e-01
1.348872755063049156e-01
1.348872755063049156e-01
1.467329002674818417e-01
1.467329002674818417e-01
1.440580817730225394e-01
1.440580817730225394e-01
1.440580817730225394e-01
1.505540695452808608e-01
1.505540695452808608e-01
1.551394726786396727e-01
1.551394726786396727e-01
1.551394726786396727e-01
1.673672143675964952e-01
1.673672143675964952e-01
1.941153993121895183e-01
1.941153993121895183e-01
1.941153993121895183e-01
1.857088269010317150e-01
1.857088269010317150e-01
2.017577378677875566e-01
2.017577378677875566e-01
2.017577378677875566e-01
2.017577378677875566e-01
2.017577378677875566e-01
2.243026366068016919e-01
2.243026366068016919e-01
2.243026366068016919e-01
2.311807413068398820e-01
2.311807413068398820e-01
2.426442491402369117e-01
2.426442491402369117e-01
2.426442491402369117e-01
2.514329384791746391e-01
2.514329384791746391e-01
2.510508215513947428e-01
2.510508215513947428e-01
2.510508215513947428e-01
2.533435231180741209e-01
2.533435231180741209e-01
2.617500955292319520e-01
2.617500955292319520e-01
2.617500955292319520e-01
2.911730989682843052e-01
2.911730989682843052e-01
2.942300343905234761e-01
2.942300343905234761e-01
2.942300343905234761e-01
3.087504776461597045e-01
3.087504776461597045e-01
3.137179977072984127e-01
3.137179977072984127e-01
3.137179977072984127e-01
3.301490256018341785e-01
3.301490256018341785e-01
3.163928162017577428e-01
3.163928162017577428e-01
3.163928162017577428e-01
3.259457393962552629e-01
3.259457393962552629e-01
3.381734810852120576e-01
3.381734810852120576e-01
3.381734810852120576e-01
3.416125334352311804e-01
3.416125334352311804e-01
3.565150936186473052e-01
3.565150936186473052e-01
3.565150936186473052e-01
3.641574321742453435e-01
3.641574321742453435e-01
3.664501337409247217e-01
3.664501337409247217e-01
3.664501337409247217e-01
3.645395491020252399e-01
3.645395491020252399e-01
3.802063431410011574e-01
3.802063431410011574e-01
3.802063431410011574e-01
3.912877340466182630e-01
3.912877340466182630e-01
4.058081773022544914e-01
4.058081773022544914e-01
4.058081773022544914e-01
3.912877340466182630e-01
3.912877340466182630e-01
4.142147497134123224e-01
4.142147497134123224e-01
4.142147497134123224e-01
4.035154757355751132e-01
4.035154757355751132e-01
4.210928544134505125e-01
4.210928544134505125e-01
4.210928544134505125e-01
4.134505158578525297e-01
4.134505158578525297e-01
4.298815437523882399e-01
4.298815437523882399e-01
4.298815437523882399e-01
4.176538020634313897e-01
4.176538020634313897e-01
4.218570882690103052e-01
4.218570882690103052e-01
4.218570882690103052e-01
4.401987008024455528e-01
4.401987008024455528e-01
4.321742453190676181e-01
4.321742453190676181e-01
4.321742453190676181e-01
4.432556362246847792e-01
4.432556362246847792e-01
4.417271685135651382e-01
4.417271685135651382e-01
4.417271685135651382e-01
4.394344669468857600e-01
4.394344669468857600e-01
4.531906763469621957e-01
4.531906763469621957e-01
4.531906763469621957e-01
4.356132976690867409e-01
4.356132976690867409e-01
4.558654948414214703e-01
4.558654948414214703e-01
4.558654948414214703e-01
4.405808177302254491e-01
4.405808177302254491e-01
4.589224302636606967e-01
4.589224302636606967e-01
4.589224302636606967e-01
4.455483377913641574e-01
4.455483377913641574e-01
4.615972487581199712e-01
4.615972487581199712e-01
4.615972487581199712e-01
4.482231562858234875e-01
4.482231562858234875e-01
4.631257164692396122e-01
4.631257164692396122e-01
4.589224302636606967e-01
4.589224302636606967e-01
4.589224302636606967e-01
4.459304547191440538e-01
4.459304547191440538e-01
4.520443255636224511e-01
4.520443255636224511e-01
4.520443255636224511e-01
4.573939625525410557e-01
4.573939625525410557e-01
4.650363011081390940e-01
4.650363011081390940e-01
4.650363011081390940e-01
4.501337409247229693e-01
4.501337409247229693e-01
4.474589224302636392e-01
4.474589224302636392e-01
4.474589224302636392e-01
4.650363011081390940e-01
4.650363011081390940e-01
4.512800917080626584e-01
4.512800917080626584e-01
4.512800917080626584e-01
4.566297286969812630e-01
4.566297286969812630e-01
4.696217042414979059e-01
4.696217042414979059e-01
4.696217042414979059e-01
4.562476117692013666e-01
4.562476117692013666e-01
4.543370271303018848e-01
4.543370271303018848e-01
4.543370271303018848e-01
4.489873901413832802e-01
4.489873901413832802e-01
4.669468857470385759e-01
4.669468857470385759e-01
4.669468857470385759e-01
4.562476117692013666e-01
4.562476117692013666e-01
4.562476117692013666e-01
4.562476117692013666e-01
4.562476117692013666e-01
4.638899503247994049e-01
4.638899503247994049e-01
4.661826518914787831e-01
4.661826518914787831e-01
4.661826518914787831e-01
4.551012609858616775e-01
4.551012609858616775e-01
4.474589224302636392e-01
4.474589224302636392e-01
4.474589224302636392e-01
4.638899503247994049e-01
4.638899503247994049e-01
4.570118456247611594e-01
4.570118456247611594e-01
4.570118456247611594e-01
4.466946885747038465e-01
4.466946885747038465e-01
4.444019870080244683e-01
4.444019870080244683e-01
4.444019870080244683e-01
4.593045471914405931e-01
4.593045471914405931e-01
4.451662208635842610e-01
4.451662208635842610e-01
4.451662208635842610e-01
4.421092854413450346e-01
4.421092854413450346e-01
4.428735192969048273e-01
4.428735192969048273e-01
4.428735192969048273e-01
4.398165838746656564e-01
4.398165838746656564e-01
4.474589224302636392e-01
4.474589224302636392e-01
4.474589224302636392e-01
4.440198700802445719e-01
4.440198700802445719e-01
4.493695070691631765e-01
4.493695070691631765e-01
4.493695070691631765e-01
4.463125716469239501e-01
4.463125716469239501e-01
4.321742453190676181e-01
4.321742453190676181e-01
4.321742453190676181e-01
4.314100114635078254e-01
4.314100114635078254e-01
4.241497898356897389e-01
4.241497898356897389e-01
4.241497898356897389e-01
4.375238823079862227e-01
4.375238823079862227e-01
4.432556362246847792e-01
4.432556362246847792e-01
4.432556362246847792e-01
4.298815437523882399e-01
4.298815437523882399e-01
4.245319067634696353e-01
4.245319067634696353e-01
4.245319067634696353e-01
4.188001528467711343e-01
4.188001528467711343e-01
4.260603744745892207e-01
4.260603744745892207e-01
4.260603744745892207e-01
4.214749713412304089e-01
4.214749713412304089e-01
4.237676729079098426e-01
4.237676729079098426e-01
4.237676729079098426e-01
4.210928544134505125e-01
4.210928544134505125e-01
4.084829957967138214e-01
4.084829957967138214e-01
4.084829957967138214e-01
4.107756973633931996e-01
4.107756973633931996e-01
4.031333588077951613e-01
4.031333588077951613e-01
4.031333588077951613e-01
3.939625525410775930e-01
3.939625525410775930e-01
3.874665647688192438e-01
3.874665647688192438e-01
3.874665647688192438e-01
4.000764233855559904e-01
4.000764233855559904e-01
3.855559801299197620e-01
3.855559801299197620e-01
3.855559801299197620e-01
3.775315246465418273e-01
3.775315246465418273e-01
3.740924722965227600e-01
3.740924722965227600e-01
3.740924722965227600e-01
3.782957585021016200e-01
3.782957585021016200e-01
3.824990447076805355e-01
3.824990447076805355e-01
3.824990447076805355e-01
3.622468475353458062e-01
3.622468475353458062e-01
3.591899121131066352e-01
3.591899121131066352e-01
3.591899121131066352e-01
3.591899121131066352e-01
3.591899121131066352e-01
3.599541459686664280e-01
3.599541459686664280e-01
3.599541459686664280e-01
3.488727550630492669e-01
3.488727550630492669e-01
3.565150936186473052e-01
3.565150936186473052e-01
3.565150936186473052e-01
3.439052350019105586e-01
3.439052350019105586e-01
3.565150936186473052e-01
3.565150936186473052e-01
3.565150936186473052e-01
3.442873519296905105e-01
3.442873519296905105e-01
3.259457393962552629e-01
3.259457393962552629e-01
3.259457393962552629e-01
3.297669086740542821e-01
3.297669086740542821e-01
3.152464654184180537e-01
3.152464654184180537e-01
3.152464654184180537e-01
3.320596102407336603e-01
3.320596102407336603e-01
3.274742071073748484e-01
3.274742071073748484e-01
3.274742071073748484e-01
3.278563240351547448e-01
3.278563240351547448e-01
3.110431792128391382e-01
3.110431792128391382e-01
3.110431792128391382e-01
3.110431792128391382e-01
3.110431792128391382e-01
3.205961024073366583e-01
3.205961024073366583e-01
3.205961024073366583e-01
3.167749331295376392e-01
3.167749331295376392e-01
3.064577760794803263e-01
3.064577760794803263e-01
3.064577760794803263e-01
3.018723729461215144e-01
3.018723729461215144e-01
3.018723729461215144e-01
3.018723729461215144e-01
3.018723729461215144e-01
2.953763851738632207e-01
2.953763851738632207e-01
3.018723729461215144e-01
3.018723729461215144e-01
2.953763851738632207e-01
2.953763851738632207e-01
2.953763851738632207e-01
2.831486434849063705e-01
2.831486434849063705e-01
2.980512036683224952e-01
2.980512036683224952e-01
2.980512036683224952e-01
2.907909820405044088e-01
2.907909820405044088e-01
2.739778372181887467e-01
2.739778372181887467e-01
2.739778372181887467e-01
2.846771111960260114e-01
2.846771111960260114e-01
2.869698127627053896e-01
2.869698127627053896e-01
2.869698127627053896e-01
2.785632403515475586e-01
2.785632403515475586e-01
2.693924340848299348e-01
2.693924340848299348e-01
2.693924340848299348e-01
2.674818494459304530e-01
2.674818494459304530e-01
2.804738249904470959e-01
2.804738249904470959e-01
2.804738249904470959e-01
2.812380588460068886e-01
2.812380588460068886e-01
2.755063049293083877e-01
2.755063049293083877e-01
2.755063049293083877e-01
2.755063049293083877e-01
2.755063049293083877e-01
2.571646923958731401e-01
2.571646923958731401e-01
2.571646923958731401e-01
2.755063049293083877e-01
2.755063049293083877e-01
2.762705387848681804e-01
2.762705387848681804e-01
2.762705387848681804e-01
2.529614061902942246e-01
2.529614061902942246e-01
2.735957202904088503e-01
2.735957202904088503e-01
2.735957202904088503e-01
2.525792892625143282e-01
2.525792892625143282e-01
2.617500955292319520e-01
2.617500955292319520e-01
2.617500955292319520e-01
2.663354986625907639e-01
2.663354986625907639e-01
2.537256400458540173e-01
2.537256400458540173e-01
2.537256400458540173e-01
2.457011845624761104e-01
2.457011845624761104e-01
2.533435231180741209e-01
2.533435231180741209e-01
2.533435231180741209e-01
2.395873137179977130e-01
2.395873137179977130e-01
2.529614061902942246e-01
2.529614061902942246e-01
2.529614061902942246e-01
2.575468093236530365e-01
2.575468093236530365e-01
2.579289262514329328e-01
2.579289262514329328e-01
2.579289262514329328e-01
2.499044707680550259e-01
2.499044707680550259e-01
2.560183416125334510e-01
2.560183416125334510e-01
2.560183416125334510e-01
2.552541077569736583e-01
2.552541077569736583e-01
2.311807413068398820e-01
2.311807413068398820e-01
2.311807413068398820e-01
2.449369507069163177e-01
2.449369507069163177e-01
2.380588460068780998e-01
2.380588460068780998e-01
2.380588460068780998e-01
2.327092090179594952e-01
2.327092090179594952e-01
2.323270920901795988e-01
2.323270920901795988e-01
2.323270920901795988e-01
2.300343905235001929e-01
2.300343905235001929e-01
2.296522735957202965e-01
2.296522735957202965e-01
2.296522735957202965e-01
2.323270920901795988e-01
2.323270920901795988e-01
2.338555598012991843e-01
2.338555598012991843e-01
2.338555598012991843e-01
2.246847535345815883e-01
2.246847535345815883e-01
2.189529996178830595e-01
2.189529996178830595e-01
2.189529996178830595e-01
2.124570118456247658e-01
2.124570118456247658e-01
2.132212457011845586e-01
2.132212457011845586e-01
2.132212457011845586e-01
2.197172334734428800e-01
2.197172334734428800e-01
2.097821933511654635e-01
2.097821933511654635e-01
2.097821933511654635e-01
2.227741688956820787e-01
2.227741688956820787e-01
2.327092090179594952e-01
2.327092090179594952e-01
2.327092090179594952e-01
2.208635842567825691e-01
2.208635842567825691e-01
2.055789071455865480e-01
2.055789071455865480e-01
2.055789071455865480e-01
2.113106610622850490e-01
2.113106610622850490e-01
2.074894917844860576e-01
2.074894917844860576e-01
2.074894917844860576e-01
1.979365685899885374e-01
1.979365685899885374e-01
2.067252579289262648e-01
2.067252579289262648e-01
2.067252579289262648e-01
2.170424149789835777e-01
2.170424149789835777e-01
2.074894917844860576e-01
2.074894917844860576e-01
2.074894917844860576e-01
2.136033626289644549e-01
2.136033626289644549e-01
2.113106610622850490e-01
2.113106610622850490e-01
2.113106610622850490e-01
2.017577378677875566e-01
2.017577378677875566e-01
2.082537256400458503e-01
2.082537256400458503e-01
2.082537256400458503e-01
1.979365685899885374e-01
1.979365685899885374e-01
1.837982422621322054e-01
1.837982422621322054e-01
1.837982422621322054e-01
2.002292701566679434e-01
2.002292701566679434e-01
1.834161253343523090e-01
1.834161253343523090e-01
1.834161253343523090e-01
1.983186855177684338e-01
1.983186855177684338e-01
1.914405808177302160e-01
1.914405808177302160e-01
1.914405808177302160e-01
1.845624761176920259e-01
1.845624761176920259e-01
1.967902178066488483e-01
1.967902178066488483e-01
1.967902178066488483e-01
1.830340084065724127e-01
1.830340084065724127e-01
1.929690485288498292e-01
1.929690485288498292e-01
1.929690485288498292e-01
1.990829193733282265e-01
1.990829193733282265e-01
1.830340084065724127e-01
1.830340084065724127e-01
1.830340084065724127e-01
1.837982422621322054e-01
1.837982422621322054e-01
1.929690485288498292e-01
1.929690485288498292e-01
1.929690485288498292e-01
1.857088269010317150e-01
1.857088269010317150e-01
1.711883836453954866e-01
1.711883836453954866e-01
1.711883836453954866e-01
1.837982422621322054e-01
1.837982422621322054e-01
1.834161253343523090e-01
1.834161253343523090e-01
1.834161253343523090e-01
1.830340084065724127e-01
1.830340084065724127e-01
1.612533435231180701e-01
1.612533435231180701e-01
1.666029805120366747e-01
1.666029805120366747e-01
1.666029805120366747e-01
1.597248758119984846e-01
1.597248758119984846e-01
1.727168513565150998e-01
1.727168513565150998e-01
1.727168513565150998e-01
1.578142911730989750e-01
1.578142911730989750e-01
1.750095529231945057e-01
1.750095529231945057e-01
1.750095529231945057e-01
1.738632021398547889e-01
1.738632021398547889e-01
1.478792510508215585e-01
1.478792510508215585e-01
1.478792510508215585e-01
1.517004203286205499e-01
1.517004203286205499e-01
1.631639281620175796e-01
1.631639281620175796e-01
1.631639281620175796e-01
1.677493312953763915e-01
1.677493312953763915e-01
1.471150171952617380e-01
1.471150171952617380e-01
1.471150171952617380e-01
1.490256018341612476e-01
1.490256018341612476e-01
1.566679403897592582e-01
1.566679403897592582e-01
1.566679403897592582e-01
1.639281620175773724e-01
1.639281620175773724e-01
1.474971341230416622e-01
1.474971341230416622e-01
1.474971341230416622e-01
1.627818112342376833e-01
1.627818112342376833e-01
1.623996943064577869e-01
1.623996943064577869e-01
1.623996943064577869e-01
1.536110049675200595e-01
1.536110049675200595e-01
1.364157432174245288e-01
1.364157432174245288e-01
1.364157432174245288e-01
1.520825372564004463e-01
1.520825372564004463e-01
1.448223156285823598e-01
1.448223156285823598e-01
1.448223156285823598e-01
1.547573557508597764e-01
1.547573557508597764e-01
1.471150171952617380e-01
1.471150171952617380e-01
1.471150171952617380e-01
1.501719526175009645e-01
1.501719526175009645e-01
1.497898356897210681e-01
1.497898356897210681e-01
1.497898356897210681e-01
1.444401987008024357e-01
1.444401987008024357e-01
1.291555215896064146e-01
1.291555215896064146e-01
1.291555215896064146e-01
1.238058846006878100e-01
1.238058846006878100e-01
1.367978601452044252e-01
1.367978601452044252e-01
1.367978601452044252e-01
1.253343523118074232e-01
1.253343523118074232e-01
1.260985861673672159e-01
1.260985861673672159e-01
1.260985861673672159e-01
1.272449369507069050e-01
1.272449369507069050e-01
1.245701184562476166e-01
1.245701184562476166e-01
1.245701184562476166e-01
1.333588077951853301e-01
1.333588077951853301e-01
1.444401987008024357e-01
1.444401987008024357e-01
1.444401987008024357e-01
1.203668322506687011e-01
1.203668322506687011e-01
1.196025983951089083e-01
1.196025983951089083e-01
1.196025983951089083e-01
1.211310661062285077e-01
1.211310661062285077e-01
1.196025983951089083e-01
1.196025983951089083e-01
1.196025983951089083e-01
1.211310661062285077e-01
1.211310661062285077e-01
1.142529614061902898e-01
1.142529614061902898e-01
1.142529614061902898e-01
1.249522353840275130e-01
1.249522353840275130e-01
1.207489491784486113e-01
1.207489491784486113e-01
1.207489491784486113e-01
1.295376385173863110e-01
1.295376385173863110e-01
1.184562476117692054e-01
1.184562476117692054e-01
1.184562476117692054e-01
1.299197554451662073e-01
1.299197554451662073e-01
1.371799770729843215e-01
1.371799770729843215e-01
1.371799770729843215e-01
1.176920137562093988e-01
1.176920137562093988e-01
1.322124570118456133e-01
1.322124570118456133e-01
1.322124570118456133e-01
1.303018723729461315e-01
1.303018723729461315e-01
1.249522353840275130e-01
1.249522353840275130e-01
1.249522353840275130e-01
1.111960259839510912e-01
1.111960259839510912e-01
1.123423767672907941e-01
1.123423767672907941e-01
1.123423767672907941e-01
1.211310661062285077e-01
1.211310661062285077e-01
1.238058846006878100e-01
1.238058846006878100e-01
1.238058846006878100e-01
1.295376385173863110e-01
1.295376385173863110e-01
1.131066106228505869e-01
1.131066106228505869e-01
1.131066106228505869e-01
1.058463889950324865e-01
1.058463889950324865e-01
1.138708444784103935e-01
1.138708444784103935e-01
1.138708444784103935e-01
1.089033244172716852e-01
1.089033244172716852e-01
1.104317921283912846e-01
1.104317921283912846e-01
1.104317921283912846e-01
1.096675582728314918e-01
1.096675582728314918e-01
1.180741306839892951e-01
1.180741306839892951e-01
1.180741306839892951e-01
1.238058846006878100e-01
1.238058846006878100e-01
1.081390905617118786e-01
1.081390905617118786e-01
1.081390905617118786e-01
1.047000382116927836e-01
1.047000382116927836e-01
1.291555215896064146e-01
1.291555215896064146e-01
1.291555215896064146e-01
1.188383645395491017e-01
1.188383645395491017e-01
1.211310661062285077e-01
1.211310661062285077e-01
1.211310661062285077e-01
1.169277799006495921e-01
1.169277799006495921e-01
1.192204814673289981e-01
1.192204814673289981e-01
1.192204814673289981e-01
1.050821551394726799e-01
1.050821551394726799e-01
1.188383645395491017e-01
1.188383645395491017e-01
1.188383645395491017e-01
1.169277799006495921e-01
1.169277799006495921e-01
1.196025983951089083e-01
1.196025983951089083e-01
1.196025983951089083e-01
1.008788689338937783e-01
1.008788689338937783e-01
9.743981658387466938e-02
9.743981658387466938e-02
9.743981658387466938e-02
1.020252197172334674e-01
1.020252197172334674e-01
1.184562476117692054e-01
1.184562476117692054e-01
1.184562476117692054e-01
1.043179212839128733e-01
1.043179212839128733e-01
1.104317921283912846e-01
1.104317921283912846e-01
1.104317921283912846e-01
1.146350783339702001e-01
1.146350783339702001e-01
1.180741306839892951e-01
1.180741306839892951e-01
9.514711501719526343e-02
9.514711501719526343e-02
9.514711501719526343e-02
1.043179212839128733e-01
1.043179212839128733e-01
9.667558272831486277e-02
9.667558272831486277e-02
9.667558272831486277e-02
1.100496752006113882e-01
1.100496752006113882e-01
1.119602598395108839e-01
1.119602598395108839e-01
1.119602598395108839e-01
1.012609858616736747e-01
1.012609858616736747e-01
1.153993121895299928e-01
1.153993121895299928e-01
1.153993121895299928e-01
1.024073366450133776e-01
1.024073366450133776e-01
9.629346580053496640e-02
9.629346580053496640e-02
9.629346580053496640e-02
9.629346580053496640e-02
9.629346580053496640e-02
1.008788689338937783e-01
1.008788689338937783e-01
1.008788689338937783e-01
1.043179212839128733e-01
1.043179212839128733e-01
9.705769965609475913e-02
9.705769965609475913e-02
9.705769965609475913e-02
1.043179212839128733e-01
1.043179212839128733e-01
1.020252197172334674e-01
1.020252197172334674e-01
1.020252197172334674e-01
1.115781429117309875e-01
1.115781429117309875e-01
1.157814291173099031e-01
1.157814291173099031e-01
1.157814291173099031e-01
1.176920137562093988e-01
1.176920137562093988e-01
1.100496752006113882e-01
1.100496752006113882e-01
1.100496752006113882e-01
8.979747802827665881e-02
8.979747802827665881e-02
1.069927397783721756e-01
1.069927397783721756e-01
1.069927397783721756e-01
1.073748567061520859e-01
1.073748567061520859e-01
1.150171952617500964e-01
1.150171952617500964e-01
1.150171952617500964e-01
1.150171952617500964e-01
1.150171952617500964e-01
1.016431027894535710e-01
1.016431027894535710e-01
1.016431027894535710e-01
9.973251815055407532e-02
9.973251815055407532e-02
9.973251815055407532e-02
9.973251815055407532e-02
9.973251815055407532e-02
1.238058846006878100e-01
1.238058846006878100e-01
1.222774168895682106e-01
1.222774168895682106e-01
1.222774168895682106e-01
1.085212074894917889e-01
1.085212074894917889e-01
