2.006113870844478397e-01
1.883836453954910173e-01
1.883836453954910173e-01
2.139854795567443513e-01
2.139854795567443513e-01
2.139854795567443513e-01
1.929690485288498292e-01
1.929690485288498292e-01
2.036683225066870384e-01
2.036683225066870384e-01
2.036683225066870384e-01
2.090179594956056430e-01
2.090179594956056430e-01
1.998471532288880470e-01
1.998471532288880470e-01
1.998471532288880470e-01
2.040504394344669348e-01
2.040504394344669348e-01
1.994650363011081506e-01
1.994650363011081506e-01
1.994650363011081506e-01
1.960259839510890278e-01
1.960259839510890278e-01
1.956438670233091315e-01
1.956438670233091315e-01
1.956438670233091315e-01
2.040504394344669348e-01
2.040504394344669348e-01
1.937332823844096219e-01
1.937332823844096219e-01
1.937332823844096219e-01
1.799770729843332140e-01
1.799770729843332140e-01
1.868551776843714041e-01
1.868551776843714041e-01
1.868551776843714041e-01
1.795949560565533176e-01
1.795949560565533176e-01
2.002292701566679434e-01
2.002292701566679434e-01
2.002292701566679434e-01
1.799770729843332140e-01
1.799770729843332140e-01
1.983186855177684338e-01
1.983186855177684338e-01
1.983186855177684338e-01
2.040504394344669348e-01
2.040504394344669348e-01
1.922048146732900364e-01
1.922048146732900364e-01
1.922048146732900364e-01
1.880015284677111209e-01
1.880015284677111209e-01
1.880015284677111209e-01
1.880015284677111209e-01
1.880015284677111209e-01
1.818876576232326958e-01
1.818876576232326958e-01
1.857088269010317150e-01
1.857088269010317150e-01
1.857088269010317150e-01
1.849445930454719222e-01
1.849445930454719222e-01
1.948796331677493388e-01
1.948796331677493388e-01
1.948796331677493388e-01
1.918226977455101123e-01
1.918226977455101123e-01
1.795949560565533176e-01
1.795949560565533176e-01
1.795949560565533176e-01
1.880015284677111209e-01
1.880015284677111209e-01
1.799770729843332140e-01
1.799770729843332140e-01
1.799770729843332140e-01
1.948796331677493388e-01
1.948796331677493388e-01
1.738632021398547889e-01
1.738632021398547889e-01
1.738632021398547889e-01
1.857088269010317150e-01
1.857088269010317150e-01
1.864730607565915077e-01
1.864730607565915077e-01
1.864730607565915077e-01
1.933511654566297255e-01
1.933511654566297255e-01
1.872372946121513282e-01
1.872372946121513282e-01
1.872372946121513282e-01
1.773022544898739117e-01
1.773022544898739117e-01
1.914405808177302160e-01
1.914405808177302160e-01
1.914405808177302160e-01
1.937332823844096219e-01
1.937332823844096219e-01
1.769201375620939876e-01
1.769201375620939876e-01
1.769201375620939876e-01
1.910584638899503196e-01
1.910584638899503196e-01
1.887657623232709136e-01
1.887657623232709136e-01
1.887657623232709136e-01
1.815055406954527994e-01
1.815055406954527994e-01
1.742453190676346853e-01
1.742453190676346853e-01
1.742453190676346853e-01
1.933511654566297255e-01
1.933511654566297255e-01
1.719526175009552793e-01
1.719526175009552793e-01
1.719526175009552793e-01
1.704241497898356938e-01
1.704241497898356938e-01
1.887657623232709136e-01
1.887657623232709136e-01
1.887657623232709136e-01
1.685135651509361843e-01
1.685135651509361843e-01
1.730989682842949962e-01
1.730989682842949962e-01
1.730989682842949962e-01
1.681314482231562879e-01
1.681314482231562879e-01
1.899121131066106305e-01
1.899121131066106305e-01
1.899121131066106305e-01
1.895299961788307341e-01
1.895299961788307341e-01
1.795949560565533176e-01
1.795949560565533176e-01
1.795949560565533176e-01
1.704241497898356938e-01
1.704241497898356938e-01
1.868551776843714041e-01
1.868551776843714041e-01
1.868551776843714041e-01
1.876194115399312246e-01
1.876194115399312246e-01
1.727168513565150998e-01
1.727168513565150998e-01
1.727168513565150998e-01
1.880015284677111209e-01
1.880015284677111209e-01
1.788307222009934971e-01
1.788307222009934971e-01
1.788307222009934971e-01
1.883836453954910173e-01
1.883836453954910173e-01
1.891478792510508100e-01
1.891478792510508100e-01
1.891478792510508100e-01
1.895299961788307341e-01
1.895299961788307341e-01
1.815055406954527994e-01
1.815055406954527994e-01
1.815055406954527994e-01
1.734810852120748925e-01
1.734810852120748925e-01
1.880015284677111209e-01
1.880015284677111209e-01
1.880015284677111209e-01
1.761559037065341948e-01
1.761559037065341948e-01
1.792128391287733935e-01
1.792128391287733935e-01
1.792128391287733935e-01
1.864730607565915077e-01
1.864730607565915077e-01
1.723347344287352034e-01
1.723347344287352034e-01
1.723347344287352034e-01
1.742453190676346853e-01
1.742453190676346853e-01
1.941153993121895183e-01
1.941153993121895183e-01
1.941153993121895183e-01
1.780664883454337044e-01
1.780664883454337044e-01
1.807413068398930067e-01
1.807413068398930067e-01
1.807413068398930067e-01
1.803591899121131104e-01
1.803591899121131104e-01
1.765380206343140912e-01
1.765380206343140912e-01
1.765380206343140912e-01
1.952617500955292351e-01
1.952617500955292351e-01
1.795949560565533176e-01
1.795949560565533176e-01
1.795949560565533176e-01
1.860909438288116113e-01
1.860909438288116113e-01
1.990829193733282265e-01
1.990829193733282265e-01
1.990829193733282265e-01
1.880015284677111209e-01
1.880015284677111209e-01
1.822697745510126199e-01
1.822697745510126199e-01
1.822697745510126199e-01
1.994650363011081506e-01
1.994650363011081506e-01
1.941153993121895183e-01
1.941153993121895183e-01
1.979365685899885374e-01
1.979365685899885374e-01
1.979365685899885374e-01
1.910584638899503196e-01
1.910584638899503196e-01
2.055789071455865480e-01
2.055789071455865480e-01
2.055789071455865480e-01
1.830340084065724127e-01
1.830340084065724127e-01
1.857088269010317150e-01
1.857088269010317150e-01
1.857088269010317150e-01
1.983186855177684338e-01
1.983186855177684338e-01
1.799770729843332140e-01
1.799770729843332140e-01
1.799770729843332140e-01
2.040504394344669348e-01
2.040504394344669348e-01
1.853267099732518186e-01
1.853267099732518186e-01
1.853267099732518186e-01
1.914405808177302160e-01
1.914405808177302160e-01
1.971723347344287447e-01
1.971723347344287447e-01
1.971723347344287447e-01
1.983186855177684338e-01
1.983186855177684338e-01
1.944975162399694424e-01
1.944975162399694424e-01
1.944975162399694424e-01
2.036683225066870384e-01
2.036683225066870384e-01
1.994650363011081506e-01
1.994650363011081506e-01
1.994650363011081506e-01
1.872372946121513282e-01
1.872372946121513282e-01
1.975544516622086411e-01
1.975544516622086411e-01
1.975544516622086411e-01
1.937332823844096219e-01
1.937332823844096219e-01
1.910584638899503196e-01
1.910584638899503196e-01
1.910584638899503196e-01
1.910584638899503196e-01
1.910584638899503196e-01
2.063431410011463407e-01
2.063431410011463407e-01
2.063431410011463407e-01
2.101643102789453599e-01
2.101643102789453599e-01
1.880015284677111209e-01
1.880015284677111209e-01
1.880015284677111209e-01
2.101643102789453599e-01
2.101643102789453599e-01
2.044325563622468589e-01
2.044325563622468589e-01
2.044325563622468589e-01
1.891478792510508100e-01
1.891478792510508100e-01
2.055789071455865480e-01
2.055789071455865480e-01
2.055789071455865480e-01
2.021398547955674529e-01
2.021398547955674529e-01
2.048146732900267553e-01
2.048146732900267553e-01
2.048146732900267553e-01
2.071073748567061612e-01
2.071073748567061612e-01
2.017577378677875566e-01
2.017577378677875566e-01
2.017577378677875566e-01
1.983186855177684338e-01
1.983186855177684338e-01
2.074894917844860576e-01
2.074894917844860576e-01
2.074894917844860576e-01
2.136033626289644549e-01
2.136033626289644549e-01
2.113106610622850490e-01
2.113106610622850490e-01
2.113106610622850490e-01
2.067252579289262648e-01
2.067252579289262648e-01
2.181887657623232668e-01
2.181887657623232668e-01
2.181887657623232668e-01
2.197172334734428800e-01
2.197172334734428800e-01
2.067252579289262648e-01
2.067252579289262648e-01
2.067252579289262648e-01
2.090179594956056430e-01
2.090179594956056430e-01
2.258311043179212774e-01
2.258311043179212774e-01
2.258311043179212774e-01
2.032862055789071420e-01
2.032862055789071420e-01
2.258311043179212774e-01
2.258311043179212774e-01
2.258311043179212774e-01
2.193351165456629837e-01
2.193351165456629837e-01
2.136033626289644549e-01
2.136033626289644549e-01
2.136033626289644549e-01
2.262132212457011737e-01
2.262132212457011737e-01
2.223920519679021823e-01
2.223920519679021823e-01
2.223920519679021823e-01
2.200993504012227764e-01
2.200993504012227764e-01
2.292701566679404002e-01
2.292701566679404002e-01
2.292701566679404002e-01
2.422621322124570153e-01
2.422621322124570153e-01
2.476117692013756200e-01
2.476117692013756200e-01
2.476117692013756200e-01
2.357661444401986939e-01
2.357661444401986939e-01
2.609858616736721593e-01
2.609858616736721593e-01
2.609858616736721593e-01
2.602216278181123665e-01
2.602216278181123665e-01
2.678639663737103493e-01
2.678639663737103493e-01
2.678639663737103493e-01
2.686282002292701421e-01
2.686282002292701421e-01
2.770347726404279731e-01
2.770347726404279731e-01
2.770347726404279731e-01
2.728314864348490576e-01
2.728314864348490576e-01
3.011081390905617217e-01
3.011081390905617217e-01
3.011081390905617217e-01
2.888803974016048715e-01
2.888803974016048715e-01
3.056935422239205336e-01
3.056935422239205336e-01
3.056935422239205336e-01
3.198318685517768656e-01
3.198318685517768656e-01
3.309132594573939712e-01
3.309132594573939712e-01
3.309132594573939712e-01
3.347344287351929903e-01
3.347344287351929903e-01
3.496369889186091151e-01
3.496369889186091151e-01
3.496369889186091151e-01
3.454337027130301996e-01
3.454337027130301996e-01
3.446694688574704069e-01
3.446694688574704069e-01
3.446694688574704069e-01
3.717997707298433263e-01
3.717997707298433263e-01
3.649216660298051362e-01
3.649216660298051362e-01
3.649216660298051362e-01
3.893771494077187811e-01
3.893771494077187811e-01
3.935804356132976967e-01
3.935804356132976967e-01
3.935804356132976967e-01
4.035154757355751132e-01
4.035154757355751132e-01
3.943446694688574894e-01
3.943446694688574894e-01
3.943446694688574894e-01
4.035154757355751132e-01
4.035154757355751132e-01
4.149789835689721151e-01
4.149789835689721151e-01
4.149789835689721151e-01
4.168895682078715970e-01
4.168895682078715970e-01
4.149789835689721151e-01
4.149789835689721151e-01
4.149789835689721151e-01
4.337027130301872591e-01
4.337027130301872591e-01
4.390523500191058637e-01
4.390523500191058637e-01
4.390523500191058637e-01
4.409629346580053455e-01
4.409629346580053455e-01
4.497516239969430729e-01
4.497516239969430729e-01
4.478410393580435356e-01
4.478410393580435356e-01
4.478410393580435356e-01
4.382881161635460709e-01
4.382881161635460709e-01
4.554833779136415739e-01
4.554833779136415739e-01
4.554833779136415739e-01
4.654184180359189904e-01
4.654184180359189904e-01
4.661826518914787831e-01
4.661826518914787831e-01
4.661826518914787831e-01
4.459304547191440538e-01
4.459304547191440538e-01
4.505158578525028656e-01
4.505158578525028656e-01
4.505158578525028656e-01
4.623614826136797640e-01
4.623614826136797640e-01
4.650363011081390940e-01
4.650363011081390940e-01
4.650363011081390940e-01
4.604508979747802822e-01
4.604508979747802822e-01
4.474589224302636392e-01
4.474589224302636392e-01
4.474589224302636392e-01
4.444019870080244683e-01
4.444019870080244683e-01
4.528085594191822438e-01
4.528085594191822438e-01
4.528085594191822438e-01
4.566297286969812630e-01
4.566297286969812630e-01
4.543370271303018848e-01
4.543370271303018848e-01
4.543370271303018848e-01
4.489873901413832802e-01
4.489873901413832802e-01
4.382881161635460709e-01
4.382881161635460709e-01
4.382881161635460709e-01
4.440198700802445719e-01
4.440198700802445719e-01
4.531906763469621957e-01
4.531906763469621957e-01
4.531906763469621957e-01
4.386702330913259673e-01
4.386702330913259673e-01
4.405808177302254491e-01
4.405808177302254491e-01
4.405808177302254491e-01
4.340848299579671554e-01
4.340848299579671554e-01
4.520443255636224511e-01
4.520443255636224511e-01
4.520443255636224511e-01
4.413450515857852419e-01
4.413450515857852419e-01
4.436377531524646756e-01
4.436377531524646756e-01
4.436377531524646756e-01
4.272067252579289098e-01
4.272067252579289098e-01
4.314100114635078254e-01
4.314100114635078254e-01
4.314100114635078254e-01
4.401987008024455528e-01
4.401987008024455528e-01
4.256782575468093244e-01
4.256782575468093244e-01
4.256782575468093244e-01
4.359954145968666372e-01
4.359954145968666372e-01
4.230034390523499943e-01
4.230034390523499943e-01
4.230034390523499943e-01
4.065724111578142841e-01
4.065724111578142841e-01
4.165074512800917006e-01
4.165074512800917006e-01
4.165074512800917006e-01
4.145968666411922188e-01
4.145968666411922188e-01
4.081008788689338695e-01
4.081008788689338695e-01
4.081008788689338695e-01
4.061902942300343877e-01
4.061902942300343877e-01
4.157432174245319079e-01
4.157432174245319079e-01
4.157432174245319079e-01
4.126862820022926814e-01
4.126862820022926814e-01
4.126862820022926814e-01
4.126862820022926814e-01
4.126862820022926814e-01
3.985479556744364049e-01
3.985479556744364049e-01
3.916698509743981593e-01
3.916698509743981593e-01
3.916698509743981593e-01
4.077187619411539732e-01
4.077187619411539732e-01
4.073366450133740768e-01
4.073366450133740768e-01
4.073366450133740768e-01
4.012227741688956795e-01
4.012227741688956795e-01
3.855559801299197620e-01
3.855559801299197620e-01
3.855559801299197620e-01
3.996943064577760940e-01
3.996943064577760940e-01
3.970194879633167639e-01
3.970194879633167639e-01
3.970194879633167639e-01
3.794421092854413646e-01
3.794421092854413646e-01
3.767672907909820346e-01
3.767672907909820346e-01
3.767672907909820346e-01
3.794421092854413646e-01
3.794421092854413646e-01
3.824990447076805355e-01
3.824990447076805355e-01
3.824990447076805355e-01
3.859380970576996583e-01
3.859380970576996583e-01
3.695070691631639481e-01
3.695070691631639481e-01
3.695070691631639481e-01
3.641574321742453435e-01
3.641574321742453435e-01
3.714176538020634299e-01
3.714176538020634299e-01
3.714176538020634299e-01
3.794421092854413646e-01
3.794421092854413646e-01
3.668322506687046181e-01
3.668322506687046181e-01
3.668322506687046181e-01
3.580435613297668906e-01
3.580435613297668906e-01
3.645395491020252399e-01
3.645395491020252399e-01
3.645395491020252399e-01
3.504012227741689078e-01
3.504012227741689078e-01
3.523118074130683897e-01
3.523118074130683897e-01
3.523118074130683897e-01
3.534581581964080788e-01
3.534581581964080788e-01
3.473442873519296814e-01
3.473442873519296814e-01
3.473442873519296814e-01
3.591899121131066352e-01
3.591899121131066352e-01
3.496369889186091151e-01
3.496369889186091151e-01
3.496369889186091151e-01
3.519296904852884933e-01
3.519296904852884933e-01
3.519296904852884933e-01
3.519296904852884933e-01
3.519296904852884933e-01
3.507833397019488042e-01
3.507833397019488042e-01
3.507833397019488042e-01
3.507833397019488042e-01
3.507833397019488042e-01
3.523118074130683897e-01
3.523118074130683897e-01
3.309132594573939712e-01
3.309132594573939712e-01
3.309132594573939712e-01
3.473442873519296814e-01
3.473442873519296814e-01
3.381734810852120576e-01
3.381734810852120576e-01
3.381734810852120576e-01
3.194497516239969692e-01
3.194497516239969692e-01
3.278563240351547448e-01
3.278563240351547448e-01
3.278563240351547448e-01
3.312953763851738676e-01
3.312953763851738676e-01
3.125716469239587236e-01
3.125716469239587236e-01
3.125716469239587236e-01
3.263278563240351593e-01
3.263278563240351593e-01
3.213603362628964510e-01
3.213603362628964510e-01
3.213603362628964510e-01
3.141001146350783091e-01
3.141001146350783091e-01
3.003439052350019289e-01
3.003439052350019289e-01
3.205961024073366583e-01
3.205961024073366583e-01
3.205961024073366583e-01
3.037829575850209962e-01
3.037829575850209962e-01
2.965227359572029098e-01
2.965227359572029098e-01
2.965227359572029098e-01
3.056935422239205336e-01
3.056935422239205336e-01
2.911730989682843052e-01
2.911730989682843052e-01
2.911730989682843052e-01
2.923194497516239942e-01
2.923194497516239942e-01
2.900267481849446161e-01
2.900267481849446161e-01
2.900267481849446161e-01
3.056935422239205336e-01
3.056935422239205336e-01
2.907909820405044088e-01
2.907909820405044088e-01
2.907909820405044088e-01
2.693924340848299348e-01
2.693924340848299348e-01
2.873519296904852860e-01
2.873519296904852860e-01
2.873519296904852860e-01
2.724493695070691612e-01
2.724493695070691612e-01
2.720672525792892649e-01
2.720672525792892649e-01
2.720672525792892649e-01
2.663354986625907639e-01
2.663354986625907639e-01
2.827665265571264741e-01
2.827665265571264741e-01
2.827665265571264741e-01
2.835307604126862668e-01
2.835307604126862668e-01
2.686282002292701421e-01
2.686282002292701421e-01
2.686282002292701421e-01
2.621322124570118484e-01
2.621322124570118484e-01
2.621322124570118484e-01
2.621322124570118484e-01
2.621322124570118484e-01
2.797095911348873032e-01
2.797095911348873032e-01
2.693924340848299348e-01
2.693924340848299348e-01
2.693924340848299348e-01
2.659533817348108675e-01
2.659533817348108675e-01
2.693924340848299348e-01
2.693924340848299348e-01
2.693924340848299348e-01
2.751241880015284913e-01
2.751241880015284913e-01
2.636606801681314338e-01
2.636606801681314338e-01
2.636606801681314338e-01
2.560183416125334510e-01
2.560183416125334510e-01
2.774168895682078695e-01
2.774168895682078695e-01
2.774168895682078695e-01
2.716851356515093685e-01
2.716851356515093685e-01
2.720672525792892649e-01
2.720672525792892649e-01
2.720672525792892649e-01
2.739778372181887467e-01
2.739778372181887467e-01
2.697745510126098312e-01
2.697745510126098312e-01
2.697745510126098312e-01
2.720672525792892649e-01
2.720672525792892649e-01
2.525792892625143282e-01
2.525792892625143282e-01
2.525792892625143282e-01
2.594573939625525183e-01
2.594573939625525183e-01
2.663354986625907639e-01
2.663354986625907639e-01
2.663354986625907639e-01
2.632785632403515375e-01
2.632785632403515375e-01
2.441727168513565249e-01
2.441727168513565249e-01
2.441727168513565249e-01
2.571646923958731401e-01
2.571646923958731401e-01
2.663354986625907639e-01
2.663354986625907639e-01
2.663354986625907639e-01
2.414978983568972226e-01
2.414978983568972226e-01
2.510508215513947428e-01
2.510508215513947428e-01
2.510508215513947428e-01
2.506687046236148464e-01
2.506687046236148464e-01
2.651891478792510748e-01
2.651891478792510748e-01
2.651891478792510748e-01
2.575468093236530365e-01
2.575468093236530365e-01
2.483760030569354127e-01
2.483760030569354127e-01
2.483760030569354127e-01
2.659533817348108675e-01
2.659533817348108675e-01
2.506687046236148464e-01
2.506687046236148464e-01
2.506687046236148464e-01
2.422621322124570153e-01
2.422621322124570153e-01
2.506687046236148464e-01
2.506687046236148464e-01
2.506687046236148464e-01
2.384409629346579962e-01
2.384409629346579962e-01
2.449369507069163177e-01
2.449369507069163177e-01
2.449369507069163177e-01
2.590752770347726219e-01
2.590752770347726219e-01
2.533435231180741209e-01
2.533435231180741209e-01
2.533435231180741209e-01
2.449369507069163177e-01
2.449369507069163177e-01
2.430263660680168081e-01
2.430263660680168081e-01
2.430263660680168081e-01
2.372946121513183071e-01
2.372946121513183071e-01
2.552541077569736583e-01
2.552541077569736583e-01
2.552541077569736583e-01
2.414978983568972226e-01
2.414978983568972226e-01
2.556362246847535546e-01
2.556362246847535546e-01
2.556362246847535546e-01
2.399694306457776094e-01
2.399694306457776094e-01
2.525792892625143282e-01
2.525792892625143282e-01
2.525792892625143282e-01
2.479938861291555163e-01
2.479938861291555163e-01
2.510508215513947428e-01
2.510508215513947428e-01
2.510508215513947428e-01
2.468475353458158272e-01
2.468475353458158272e-01
2.537256400458540173e-01
2.537256400458540173e-01
2.537256400458540173e-01
2.315628582346198061e-01
2.315628582346198061e-01
2.506687046236148464e-01
2.506687046236148464e-01
2.506687046236148464e-01
2.262132212457011737e-01
2.262132212457011737e-01
2.499044707680550259e-01
2.499044707680550259e-01
2.499044707680550259e-01
2.246847535345815883e-01
2.246847535345815883e-01
2.212457011845624655e-01
2.212457011845624655e-01
2.212457011845624655e-01
2.231562858234619751e-01
2.231562858234619751e-01
2.250668704623614846e-01
2.250668704623614846e-01
2.250668704623614846e-01
2.342376767290791084e-01
2.342376767290791084e-01
2.315628582346198061e-01
2.315628582346198061e-01
2.315628582346198061e-01
2.212457011845624655e-01
2.212457011845624655e-01
2.376767290790982035e-01
2.376767290790982035e-01
2.376767290790982035e-01
2.372946121513183071e-01
2.372946121513183071e-01
2.178066488345433704e-01
2.178066488345433704e-01
2.178066488345433704e-01
2.246847535345815883e-01
2.246847535345815883e-01
2.277416889568207869e-01
2.277416889568207869e-01
2.277416889568207869e-01
2.353840275124187975e-01
2.353840275124187975e-01
2.212457011845624655e-01
2.212457011845624655e-01
2.258311043179212774e-01
2.258311043179212774e-01
2.258311043179212774e-01
2.350019105846389011e-01
2.350019105846389011e-01
2.178066488345433704e-01
2.178066488345433704e-01
2.178066488345433704e-01
2.265953381734810979e-01
2.265953381734810979e-01
2.200993504012227764e-01
2.200993504012227764e-01
2.200993504012227764e-01
2.181887657623232668e-01
2.181887657623232668e-01
2.170424149789835777e-01
2.170424149789835777e-01
2.170424149789835777e-01
2.025219717233473493e-01
2.025219717233473493e-01
2.243026366068016919e-01
2.243026366068016919e-01
2.243026366068016919e-01
2.246847535345815883e-01
2.246847535345815883e-01
2.223920519679021823e-01
2.223920519679021823e-01
2.223920519679021823e-01
2.216278181123423896e-01
2.216278181123423896e-01
2.059610240733664444e-01
2.059610240733664444e-01
2.059610240733664444e-01
2.013756209400076325e-01
2.013756209400076325e-01
2.029040886511272457e-01
2.029040886511272457e-01
2.029040886511272457e-01
2.055789071455865480e-01
2.055789071455865480e-01
2.078716087122659539e-01
2.078716087122659539e-01
2.078716087122659539e-01
2.082537256400458503e-01
2.082537256400458503e-01
2.181887657623232668e-01
2.181887657623232668e-01
2.181887657623232668e-01
1.929690485288498292e-01
1.929690485288498292e-01
2.063431410011463407e-01
2.063431410011463407e-01
2.063431410011463407e-01
1.956438670233091315e-01
1.956438670233091315e-01
2.044325563622468589e-01
2.044325563622468589e-01
2.044325563622468589e-01
2.059610240733664444e-01
2.059610240733664444e-01
1.994650363011081506e-01
1.994650363011081506e-01
1.994650363011081506e-01
2.048146732900267553e-01
2.048146732900267553e-01
2.048146732900267553e-01
2.048146732900267553e-01
2.048146732900267553e-01
2.067252579289262648e-01
2.067252579289262648e-01
2.051967902178066516e-01
2.051967902178066516e-01
2.051967902178066516e-01
1.895299961788307341e-01
1.895299961788307341e-01
1.788307222009934971e-01
1.788307222009934971e-01
1.788307222009934971e-01
1.830340084065724127e-01
1.830340084065724127e-01
1.803591899121131104e-01
1.803591899121131104e-01
1.803591899121131104e-01
1.899121131066106305e-01
1.899121131066106305e-01
2.021398547955674529e-01
2.021398547955674529e-01
2.021398547955674529e-01
1.998471532288880470e-01
1.998471532288880470e-01
2.021398547955674529e-01
2.021398547955674529e-01
2.021398547955674529e-01
1.906763469621704232e-01
1.906763469621704232e-01
1.994650363011081506e-01
1.994650363011081506e-01
1.994650363011081506e-01
1.979365685899885374e-01
1.979365685899885374e-01
1.902942300343905269e-01
1.902942300343905269e-01
1.902942300343905269e-01
1.979365685899885374e-01
1.979365685899885374e-01
2.006113870844478397e-01
2.006113870844478397e-01
2.006113870844478397e-01
1.818876576232326958e-01
1.818876576232326958e-01
1.902942300343905269e-01
1.902942300343905269e-01
1.902942300343905269e-01
1.918226977455101123e-01
1.918226977455101123e-01
1.914405808177302160e-01
1.914405808177302160e-01
1.914405808177302160e-01
1.734810852120748925e-01
1.734810852120748925e-01
1.818876576232326958e-01
1.818876576232326958e-01
1.818876576232326958e-01
1.822697745510126199e-01
1.822697745510126199e-01
1.692777990064959770e-01
1.692777990064959770e-01
1.692777990064959770e-01
1.761559037065341948e-01
1.761559037065341948e-01
1.845624761176920259e-01
1.845624761176920259e-01
1.845624761176920259e-01
1.845624761176920259e-01
1.845624761176920259e-01
1.906763469621704232e-01
1.906763469621704232e-01
1.906763469621704232e-01
1.730989682842949962e-01
1.730989682842949962e-01
1.792128391287733935e-01
1.792128391287733935e-01
1.792128391287733935e-01
1.910584638899503196e-01
1.910584638899503196e-01
1.780664883454337044e-01
1.780664883454337044e-01
1.780664883454337044e-01
1.929690485288498292e-01
1.929690485288498292e-01
1.688956820787160806e-01
1.688956820787160806e-01
1.688956820787160806e-01
1.830340084065724127e-01
1.830340084065724127e-01
1.704241497898356938e-01
1.704241497898356938e-01
1.704241497898356938e-01
1.776843714176538080e-01
1.776843714176538080e-01
1.685135651509361843e-01
1.685135651509361843e-01
1.685135651509361843e-01
1.853267099732518186e-01
1.853267099732518186e-01
1.761559037065341948e-01
1.761559037065341948e-01
1.761559037065341948e-01
1.860909438288116113e-01
1.860909438288116113e-01
1.715705005731753829e-01
1.715705005731753829e-01
1.715705005731753829e-01
1.727168513565150998e-01
1.727168513565150998e-01
1.688956820787160806e-01
1.688956820787160806e-01
1.688956820787160806e-01
1.666029805120366747e-01
1.666029805120366747e-01
1.902942300343905269e-01
1.902942300343905269e-01
1.902942300343905269e-01
1.666029805120366747e-01
1.666029805120366747e-01
1.708062667176155902e-01
1.708062667176155902e-01
1.708062667176155902e-01
1.899121131066106305e-01
1.899121131066106305e-01
1.696599159342759011e-01
1.696599159342759011e-01
1.696599159342759011e-01
1.834161253343523090e-01
1.834161253343523090e-01
1.799770729843332140e-01
1.799770729843332140e-01
1.799770729843332140e-01
1.857088269010317150e-01
1.857088269010317150e-01
1.719526175009552793e-01
1.719526175009552793e-01
1.708062667176155902e-01
1.708062667176155902e-01
1.708062667176155902e-01
1.929690485288498292e-01
1.929690485288498292e-01
1.750095529231945057e-01
1.750095529231945057e-01
1.750095529231945057e-01
1.857088269010317150e-01
1.857088269010317150e-01
1.795949560565533176e-01
1.795949560565533176e-01
1.795949560565533176e-01
1.753916698509744021e-01
1.753916698509744021e-01
1.719526175009552793e-01
1.719526175009552793e-01
1.719526175009552793e-01
1.857088269010317150e-01
1.857088269010317150e-01
1.837982422621322054e-01
1.837982422621322054e-01
1.837982422621322054e-01
1.857088269010317150e-01
1.857088269010317150e-01
1.811234237676729031e-01
1.811234237676729031e-01
1.811234237676729031e-01
1.857088269010317150e-01
1.857088269010317150e-01
1.822697745510126199e-01
1.822697745510126199e-01
1.822697745510126199e-01
1.887657623232709136e-01
1.887657623232709136e-01
1.780664883454337044e-01
1.780664883454337044e-01
1.780664883454337044e-01
1.841803591899121018e-01
1.841803591899121018e-01
1.849445930454719222e-01
1.849445930454719222e-01
1.849445930454719222e-01
1.818876576232326958e-01
1.818876576232326958e-01
1.811234237676729031e-01
1.811234237676729031e-01
1.811234237676729031e-01
1.941153993121895183e-01
1.941153993121895183e-01
1.864730607565915077e-01
1.864730607565915077e-01
1.864730607565915077e-01
2.013756209400076325e-01
2.013756209400076325e-01
1.811234237676729031e-01
1.811234237676729031e-01
1.811234237676729031e-01
1.956438670233091315e-01
1.956438670233091315e-01
1.952617500955292351e-01
1.952617500955292351e-01
1.952617500955292351e-01
2.067252579289262648e-01
2.067252579289262648e-01
2.032862055789071420e-01
2.032862055789071420e-01
2.032862055789071420e-01
1.994650363011081506e-01
1.994650363011081506e-01
1.853267099732518186e-01
1.853267099732518186e-01
1.853267099732518186e-01
1.860909438288116113e-01
1.860909438288116113e-01
2.013756209400076325e-01
2.013756209400076325e-01
2.013756209400076325e-01
1.887657623232709136e-01
1.887657623232709136e-01
1.864730607565915077e-01
1.864730607565915077e-01
1.864730607565915077e-01
1.948796331677493388e-01
1.948796331677493388e-01
1.899121131066106305e-01
1.899121131066106305e-01
1.899121131066106305e-01
2.082537256400458503e-01
2.082537256400458503e-01
1.895299961788307341e-01
1.895299961788307341e-01
1.895299961788307341e-01
1.845624761176920259e-01
1.845624761176920259e-01
1.902942300343905269e-01
1.902942300343905269e-01
1.902942300343905269e-01
2.051967902178066516e-01
2.051967902178066516e-01
1.933511654566297255e-01
1.933511654566297255e-01
1.933511654566297255e-01
1.979365685899885374e-01
1.979365685899885374e-01
2.051967902178066516e-01
2.051967902178066516e-01
2.051967902178066516e-01
1.941153993121895183e-01
1.941153993121895183e-01
1.933511654566297255e-01
1.933511654566297255e-01
1.933511654566297255e-01
2.021398547955674529e-01
2.021398547955674529e-01
2.097821933511654635e-01
2.097821933511654635e-01
2.097821933511654635e-01
2.078716087122659539e-01
2.078716087122659539e-01
1.990829193733282265e-01
1.990829193733282265e-01
1.990829193733282265e-01
1.956438670233091315e-01
1.956438670233091315e-01
2.055789071455865480e-01
2.055789071455865480e-01
2.055789071455865480e-01
2.097821933511654635e-01
2.097821933511654635e-01
2.147497134123041718e-01
2.147497134123041718e-01
2.147497134123041718e-01
1.975544516622086411e-01
1.975544516622086411e-01
1.922048146732900364e-01
1.922048146732900364e-01
1.922048146732900364e-01
2.071073748567061612e-01
2.071073748567061612e-01
2.071073748567061612e-01
2.071073748567061612e-01
2.071073748567061612e-01
2.147497134123041718e-01
2.147497134123041718e-01
2.063431410011463407e-01
2.063431410011463407e-01
2.063431410011463407e-01
1.922048146732900364e-01
1.922048146732900364e-01
2.097821933511654635e-01
2.097821933511654635e-01
2.097821933511654635e-01
2.147497134123041718e-01
2.147497134123041718e-01
2.067252579289262648e-01
2.067252579289262648e-01
2.067252579289262648e-01
1.906763469621704232e-01
1.906763469621704232e-01
2.002292701566679434e-01
2.002292701566679434e-01
2.002292701566679434e-01
2.082537256400458503e-01
2.082537256400458503e-01
2.051967902178066516e-01
2.051967902178066516e-01
2.051967902178066516e-01
2.208635842567825691e-01
2.208635842567825691e-01
2.021398547955674529e-01
2.021398547955674529e-01
2.021398547955674529e-01
2.032862055789071420e-01
2.032862055789071420e-01
2.269774551012609942e-01
2.269774551012609942e-01
2.269774551012609942e-01
2.243026366068016919e-01
2.243026366068016919e-01
2.090179594956056430e-01
2.090179594956056430e-01
2.090179594956056430e-01
2.101643102789453599e-01
2.101643102789453599e-01
2.307986243790599856e-01
2.307986243790599856e-01
2.307986243790599856e-01
2.231562858234619751e-01
2.231562858234619751e-01
2.357661444401986939e-01
2.357661444401986939e-01
2.357661444401986939e-01
2.434084829957967044e-01
2.434084829957967044e-01
2.579289262514329328e-01
2.579289262514329328e-01
2.579289262514329328e-01
2.414978983568972226e-01
2.414978983568972226e-01
2.464654184180359309e-01
2.464654184180359309e-01
2.705387848681696794e-01
2.705387848681696794e-01
2.705387848681696794e-01
2.632785632403515375e-01
2.632785632403515375e-01
2.854413450515858042e-01
2.854413450515858042e-01
2.854413450515858042e-01
2.865876958349254933e-01
2.865876958349254933e-01
2.808559419182269923e-01
2.808559419182269923e-01
2.808559419182269923e-01
3.011081390905617217e-01
3.011081390905617217e-01
3.183034008406572246e-01
3.183034008406572246e-01
3.183034008406572246e-01
3.236530378295758292e-01
3.236530378295758292e-01
3.160106992739778464e-01
3.160106992739778464e-01
3.160106992739778464e-01
3.446694688574704069e-01
3.446694688574704069e-01
3.320596102407336603e-01
3.320596102407336603e-01
3.320596102407336603e-01
3.576614444019869943e-01
3.576614444019869943e-01
3.672143675964845144e-01
3.672143675964845144e-01
3.672143675964845144e-01
3.633931983186854953e-01
3.633931983186854953e-01
3.863202139854795547e-01
3.863202139854795547e-01
3.863202139854795547e-01
3.802063431410011574e-01
3.802063431410011574e-01
4.069545280855941805e-01
4.069545280855941805e-01
4.069545280855941805e-01
4.126862820022926814e-01
4.126862820022926814e-01
4.126862820022926814e-01
4.126862820022926814e-01
4.126862820022926814e-01
4.073366450133740768e-01
4.073366450133740768e-01
4.249140236912495316e-01
4.249140236912495316e-01
4.249140236912495316e-01
4.207107374856706161e-01
4.207107374856706161e-01
4.302636606801681363e-01
4.302636606801681363e-01
4.302636606801681363e-01
4.337027130301872591e-01
4.337027130301872591e-01
4.352311807413068445e-01
4.352311807413068445e-01
4.352311807413068445e-01
4.543370271303018848e-01
4.543370271303018848e-01
4.424914023691249310e-01
4.424914023691249310e-01
4.424914023691249310e-01
4.524264424914023475e-01
4.524264424914023475e-01
4.623614826136797640e-01
4.623614826136797640e-01
4.623614826136797640e-01
4.551012609858616775e-01
4.551012609858616775e-01
4.551012609858616775e-01
4.551012609858616775e-01
4.551012609858616775e-01
4.619793656858998676e-01
4.619793656858998676e-01
4.512800917080626584e-01
4.512800917080626584e-01
4.512800917080626584e-01
4.627435995414596603e-01
4.627435995414596603e-01
4.596866641192204894e-01
4.596866641192204894e-01
4.596866641192204894e-01
4.573939625525410557e-01
4.573939625525410557e-01
4.554833779136415739e-01
4.554833779136415739e-01
4.554833779136415739e-01
4.539549102025219884e-01
4.539549102025219884e-01
4.551012609858616775e-01
4.551012609858616775e-01
4.551012609858616775e-01
4.757355750859763033e-01
4.757355750859763033e-01
4.585403133358808003e-01
4.585403133358808003e-01
4.585403133358808003e-01
4.581581964081009040e-01
4.581581964081009040e-01
4.486052732136033838e-01
4.486052732136033838e-01
4.486052732136033838e-01
4.486052732136033838e-01
4.486052732136033838e-01
4.650363011081390940e-01
4.650363011081390940e-01
4.650363011081390940e-01
4.646541841803591977e-01
4.646541841803591977e-01
4.585403133358808003e-01
4.585403133358808003e-01
4.585403133358808003e-01
4.432556362246847792e-01
4.432556362246847792e-01
4.409629346580053455e-01
4.409629346580053455e-01
4.409629346580053455e-01
4.566297286969812630e-01
4.566297286969812630e-01
4.401987008024455528e-01
4.401987008024455528e-01
4.401987008024455528e-01
4.421092854413450346e-01
4.421092854413450346e-01
4.306457776079480326e-01
4.306457776079480326e-01
4.306457776079480326e-01
4.256782575468093244e-01
4.256782575468093244e-01
4.390523500191058637e-01
4.390523500191058637e-01
4.390523500191058637e-01
4.363775315246465336e-01
4.363775315246465336e-01
4.337027130301872591e-01
4.337027130301872591e-01
4.337027130301872591e-01
4.283530760412686544e-01
4.283530760412686544e-01
4.321742453190676181e-01
4.321742453190676181e-01
4.321742453190676181e-01
4.157432174245319079e-01
4.157432174245319079e-01
4.348490638135269482e-01
4.348490638135269482e-01
4.348490638135269482e-01
4.126862820022926814e-01
4.126862820022926814e-01
4.092472296522736142e-01
4.092472296522736142e-01
4.092472296522736142e-01
4.023691249522353686e-01
4.023691249522353686e-01
4.161253343523118042e-01
4.161253343523118042e-01
4.161253343523118042e-01
4.157432174245319079e-01
4.157432174245319079e-01
4.153611004967520115e-01
4.153611004967520115e-01
4.153611004967520115e-01
4.115399312189529923e-01
4.115399312189529923e-01
3.951089033244172821e-01
3.951089033244172821e-01
3.951089033244172821e-01
4.115399312189529923e-01
4.115399312189529923e-01
3.966373710355368676e-01
3.966373710355368676e-01
3.966373710355368676e-01
3.935804356132976967e-01
3.935804356132976967e-01
3.870844478410393474e-01
3.870844478410393474e-01
3.870844478410393474e-01
3.935804356132976967e-01
3.935804356132976967e-01
4.019870080244554722e-01
4.019870080244554722e-01
4.019870080244554722e-01
3.832632785632403283e-01
3.832632785632403283e-01
3.794421092854413646e-01
3.794421092854413646e-01
3.794421092854413646e-01
3.698891860909438445e-01
3.698891860909438445e-01
3.675964845242644108e-01
3.675964845242644108e-01
3.675964845242644108e-01
3.771494077187619309e-01
3.771494077187619309e-01
3.870844478410393474e-01
3.870844478410393474e-01
3.870844478410393474e-01
3.744745892243026564e-01
3.744745892243026564e-01
3.824990447076805355e-01
3.824990447076805355e-01
3.687428353076040999e-01
3.687428353076040999e-01
3.687428353076040999e-01
3.565150936186473052e-01
3.565150936186473052e-01
3.553687428353076161e-01
3.553687428353076161e-01
3.553687428353076161e-01
3.504012227741689078e-01
3.504012227741689078e-01
3.649216660298051362e-01
3.649216660298051362e-01
3.649216660298051362e-01
3.496369889186091151e-01
3.496369889186091151e-01
3.660680168131448253e-01
3.660680168131448253e-01
3.660680168131448253e-01
3.423767672907909732e-01
3.423767672907909732e-01
3.595720290408865316e-01
3.595720290408865316e-01
3.595720290408865316e-01
3.488727550630492669e-01
3.488727550630492669e-01
3.534581581964080788e-01
3.534581581964080788e-01
3.534581581964080788e-01
3.507833397019488042e-01
3.507833397019488042e-01
3.515475735575085969e-01
3.515475735575085969e-01
3.515475735575085969e-01
3.309132594573939712e-01
3.309132594573939712e-01
3.358807795185326794e-01
3.358807795185326794e-01
3.358807795185326794e-01
3.255636224684753666e-01
3.255636224684753666e-01
3.190676346962170173e-01
3.190676346962170173e-01
3.190676346962170173e-01
3.263278563240351593e-01
3.263278563240351593e-01
3.247993886129155738e-01
3.247993886129155738e-01
3.247993886129155738e-01
3.240351547573557256e-01
3.240351547573557256e-01
3.263278563240351593e-01
3.263278563240351593e-01
3.263278563240351593e-01
3.056935422239205336e-01
3.056935422239205336e-01
3.060756591517004299e-01
3.060756591517004299e-01
3.060756591517004299e-01
3.087504776461597045e-01
3.087504776461597045e-01
3.148643484906381573e-01
3.148643484906381573e-01
3.148643484906381573e-01
2.999617883072220326e-01
2.999617883072220326e-01
3.014902560183416180e-01
3.014902560183416180e-01
3.014902560183416180e-01
3.014902560183416180e-01
3.014902560183416180e-01
2.907909820405044088e-01
2.907909820405044088e-01
2.907909820405044088e-01
2.976690867405425989e-01
2.976690867405425989e-01
3.060756591517004299e-01
3.060756591517004299e-01
3.060756591517004299e-01
3.049293083683607408e-01
3.049293083683607408e-01
2.965227359572029098e-01
2.965227359572029098e-01
2.965227359572029098e-01
2.980512036683224952e-01
2.980512036683224952e-01
2.800917080626671996e-01
2.800917080626671996e-01
2.800917080626671996e-01
2.716851356515093685e-01
2.716851356515093685e-01
2.758884218570882840e-01
2.758884218570882840e-01
2.758884218570882840e-01
2.858234619793657005e-01
2.858234619793657005e-01
2.739778372181887467e-01
2.739778372181887467e-01
2.739778372181887467e-01
2.869698127627053896e-01
2.869698127627053896e-01
2.590752770347726219e-01
2.590752770347726219e-01
2.590752770347726219e-01
2.831486434849063705e-01
2.831486434849063705e-01
2.701566679403897830e-01
2.701566679403897830e-01
2.701566679403897830e-01
2.793274742071073513e-01
2.793274742071073513e-01
2.651891478792510748e-01
2.651891478792510748e-01
2.651891478792510748e-01
2.556362246847535546e-01
2.556362246847535546e-01
2.636606801681314338e-01
2.636606801681314338e-01
2.636606801681314338e-01
2.724493695070691612e-01
2.724493695070691612e-01
2.716851356515093685e-01
2.716851356515093685e-01
2.716851356515093685e-01
2.510508215513947428e-01
2.510508215513947428e-01
2.739778372181887467e-01
2.739778372181887467e-01
2.739778372181887467e-01
2.590752770347726219e-01
2.590752770347726219e-01
2.667176155903706603e-01
2.667176155903706603e-01
2.667176155903706603e-01
2.724493695070691612e-01
2.724493695070691612e-01
2.621322124570118484e-01
2.621322124570118484e-01
2.621322124570118484e-01
2.709209017959495758e-01
2.709209017959495758e-01
2.583110431792128292e-01
2.583110431792128292e-01
2.583110431792128292e-01
2.716851356515093685e-01
2.716851356515093685e-01
2.697745510126098312e-01
2.697745510126098312e-01
2.697745510126098312e-01
2.701566679403897830e-01
2.701566679403897830e-01
2.644249140236912266e-01
2.644249140236912266e-01
2.644249140236912266e-01
2.495223538402751295e-01
2.495223538402751295e-01
2.495223538402751295e-01
2.495223538402751295e-01
2.495223538402751295e-01
2.453190676346962140e-01
2.453190676346962140e-01
2.560183416125334510e-01
2.560183416125334510e-01
2.560183416125334510e-01
2.571646923958731401e-01
2.571646923958731401e-01
2.567825754680932437e-01
2.567825754680932437e-01
2.567825754680932437e-01
2.525792892625143282e-01
2.525792892625143282e-01
2.533435231180741209e-01
2.533435231180741209e-01
2.533435231180741209e-01
2.648070309514711229e-01
2.648070309514711229e-01
2.579289262514329328e-01
2.579289262514329328e-01
2.579289262514329328e-01
2.491402369124952332e-01
2.491402369124952332e-01
2.395873137179977130e-01
2.395873137179977130e-01
2.395873137179977130e-01
2.453190676346962140e-01
2.453190676346962140e-01
2.426442491402369117e-01
2.426442491402369117e-01
2.426442491402369117e-01
2.518150554069545355e-01
2.518150554069545355e-01
2.476117692013756200e-01
2.476117692013756200e-01
2.476117692013756200e-01
2.411157814291172985e-01
2.411157814291172985e-01
2.384409629346579962e-01
2.384409629346579962e-01
2.384409629346579962e-01
2.472296522735957236e-01
2.472296522735957236e-01
2.388230798624378926e-01
2.388230798624378926e-01
2.414978983568972226e-01
2.414978983568972226e-01
2.414978983568972226e-01
2.575468093236530365e-01
2.575468093236530365e-01
2.586931601069927256e-01
2.586931601069927256e-01
2.586931601069927256e-01
2.506687046236148464e-01
2.506687046236148464e-01
2.476117692013756200e-01
2.476117692013756200e-01
2.476117692013756200e-01
2.430263660680168081e-01
2.430263660680168081e-01
2.372946121513183071e-01
2.372946121513183071e-01
2.372946121513183071e-01
2.365303782957585144e-01
2.365303782957585144e-01
2.506687046236148464e-01
2.506687046236148464e-01
2.506687046236148464e-01
2.529614061902942246e-01
2.529614061902942246e-01
2.437905999235766008e-01
2.437905999235766008e-01
2.437905999235766008e-01
2.311807413068398820e-01
2.311807413068398820e-01
2.537256400458540173e-01
2.537256400458540173e-01
2.537256400458540173e-01
2.514329384791746391e-01
2.514329384791746391e-01
2.388230798624378926e-01
2.388230798624378926e-01
2.388230798624378926e-01
2.315628582346198061e-01
2.315628582346198061e-01
2.457011845624761104e-01
2.457011845624761104e-01
2.457011845624761104e-01
2.453190676346962140e-01
2.453190676346962140e-01
2.258311043179212774e-01
2.258311043179212774e-01
2.258311043179212774e-01
2.246847535345815883e-01
2.246847535345815883e-01
2.399694306457776094e-01
2.399694306457776094e-01
2.399694306457776094e-01
2.407336645013374021e-01
2.407336645013374021e-01
2.304165074512800893e-01
2.304165074512800893e-01
2.304165074512800893e-01
2.434084829957967044e-01
2.434084829957967044e-01
2.166602980512036813e-01
2.166602980512036813e-01
2.166602980512036813e-01
2.178066488345433704e-01
2.178066488345433704e-01
2.350019105846389011e-01
2.350019105846389011e-01
2.350019105846389011e-01
2.216278181123423896e-01
2.216278181123423896e-01
2.178066488345433704e-01
2.178066488345433704e-01
2.178066488345433704e-01
2.296522735957202965e-01
2.296522735957202965e-01
2.170424149789835777e-01
2.170424149789835777e-01
2.170424149789835777e-01
2.136033626289644549e-01
2.136033626289644549e-01
2.235384027512418714e-01
2.235384027512418714e-01
2.235384027512418714e-01
2.113106610622850490e-01
2.113106610622850490e-01
2.059610240733664444e-01
2.059610240733664444e-01
2.059610240733664444e-01
2.246847535345815883e-01
2.246847535345815883e-01
2.212457011845624655e-01
2.212457011845624655e-01
2.212457011845624655e-01
2.223920519679021823e-01
2.223920519679021823e-01
2.116927779900649731e-01
2.116927779900649731e-01
2.116927779900649731e-01
2.113106610622850490e-01
2.113106610622850490e-01
2.166602980512036813e-01
2.166602980512036813e-01
2.166602980512036813e-01
2.185708826901031632e-01
2.185708826901031632e-01
1.964081008788689242e-01
1.964081008788689242e-01
1.964081008788689242e-01
2.162781811234237572e-01
2.162781811234237572e-01
1.960259839510890278e-01
1.960259839510890278e-01
1.960259839510890278e-01
2.067252579289262648e-01
2.067252579289262648e-01
2.082537256400458503e-01
2.082537256400458503e-01
2.082537256400458503e-01
2.032862055789071420e-01
2.032862055789071420e-01
2.132212457011845586e-01
2.132212457011845586e-01
2.132212457011845586e-01
1.937332823844096219e-01
1.937332823844096219e-01
2.063431410011463407e-01
2.063431410011463407e-01
2.063431410011463407e-01
1.868551776843714041e-01
1.868551776843714041e-01
1.868551776843714041e-01
1.868551776843714041e-01
1.868551776843714041e-01
1.857088269010317150e-01
1.857088269010317150e-01
2.055789071455865480e-01
2.055789071455865480e-01
2.055789071455865480e-01
1.849445930454719222e-01
1.849445930454719222e-01
2.040504394344669348e-01
2.040504394344669348e-01
2.040504394344669348e-01
1.998471532288880470e-01
1.998471532288880470e-01
2.063431410011463407e-01
2.063431410011463407e-01
2.063431410011463407e-01
1.902942300343905269e-01
1.902942300343905269e-01
1.876194115399312246e-01
1.876194115399312246e-01
1.876194115399312246e-01
1.979365685899885374e-01
1.979365685899885374e-01
1.811234237676729031e-01
1.811234237676729031e-01
1.811234237676729031e-01
1.834161253343523090e-01
1.834161253343523090e-01
1.891478792510508100e-01
1.891478792510508100e-01
1.891478792510508100e-01
1.849445930454719222e-01
1.849445930454719222e-01
1.849445930454719222e-01
1.849445930454719222e-01
1.849445930454719222e-01
1.937332823844096219e-01
1.937332823844096219e-01
1.761559037065341948e-01
1.761559037065341948e-01
1.761559037065341948e-01
1.941153993121895183e-01
1.941153993121895183e-01
1.799770729843332140e-01
1.799770729843332140e-01
1.799770729843332140e-01
1.734810852120748925e-01
1.734810852120748925e-01
1.727168513565150998e-01
1.727168513565150998e-01
1.727168513565150998e-01
1.948796331677493388e-01
1.948796331677493388e-01
1.811234237676729031e-01
1.811234237676729031e-01
1.811234237676729031e-01
1.738632021398547889e-01
1.738632021398547889e-01
1.857088269010317150e-01
1.857088269010317150e-01
1.857088269010317150e-01
1.761559037065341948e-01
1.761559037065341948e-01
1.845624761176920259e-01
1.845624761176920259e-01
1.845624761176920259e-01
1.887657623232709136e-01
1.887657623232709136e-01
1.765380206343140912e-01
1.765380206343140912e-01
1.765380206343140912e-01
1.711883836453954866e-01
1.711883836453954866e-01
1.765380206343140912e-01
1.765380206343140912e-01
1.662208635842567783e-01
1.662208635842567783e-01
1.662208635842567783e-01
1.769201375620939876e-01
1.769201375620939876e-01
1.666029805120366747e-01
1.666029805120366747e-01
1.666029805120366747e-01
1.788307222009934971e-01
1.788307222009934971e-01
1.815055406954527994e-01
1.815055406954527994e-01
1.815055406954527994e-01
1.868551776843714041e-01
1.868551776843714041e-01
1.753916698509744021e-01
1.753916698509744021e-01
1.753916698509744021e-01
1.868551776843714041e-01
1.868551776843714041e-01
1.723347344287352034e-01
1.723347344287352034e-01
1.723347344287352034e-01
1.792128391287733935e-01
1.792128391287733935e-01
1.681314482231562879e-01
1.681314482231562879e-01
1.681314482231562879e-01
1.677493312953763915e-01
1.677493312953763915e-01
1.906763469621704232e-01
1.906763469621704232e-01
1.906763469621704232e-01
1.918226977455101123e-01
1.918226977455101123e-01
1.895299961788307341e-01
1.895299961788307341e-01
1.895299961788307341e-01
1.803591899121131104e-01
1.803591899121131104e-01
1.685135651509361843e-01
1.685135651509361843e-01
1.685135651509361843e-01
1.925869316010699328e-01
1.925869316010699328e-01
1.761559037065341948e-01
1.761559037065341948e-01
1.761559037065341948e-01
1.700420328620557975e-01
1.700420328620557975e-01
1.692777990064959770e-01
1.692777990064959770e-01
1.692777990064959770e-01
1.780664883454337044e-01
1.780664883454337044e-01
1.700420328620557975e-01
1.700420328620557975e-01
1.700420328620557975e-01
1.887657623232709136e-01
1.887657623232709136e-01
1.681314482231562879e-01
1.681314482231562879e-01
1.681314482231562879e-01
1.761559037065341948e-01
1.761559037065341948e-01
1.883836453954910173e-01
1.883836453954910173e-01
1.883836453954910173e-01
1.799770729843332140e-01
1.799770729843332140e-01
1.761559037065341948e-01
1.761559037065341948e-01
1.761559037065341948e-01
1.734810852120748925e-01
1.734810852120748925e-01
1.723347344287352034e-01
1.723347344287352034e-01
1.723347344287352034e-01
1.849445930454719222e-01
1.849445930454719222e-01
1.864730607565915077e-01
1.864730607565915077e-01
1.864730607565915077e-01
1.830340084065724127e-01
1.830340084065724127e-01
1.834161253343523090e-01
1.834161253343523090e-01
1.834161253343523090e-01
1.902942300343905269e-01
1.902942300343905269e-01
1.868551776843714041e-01
1.868551776843714041e-01
1.868551776843714041e-01
1.742453190676346853e-01
1.742453190676346853e-01
1.918226977455101123e-01
1.918226977455101123e-01
1.918226977455101123e-01
1.883836453954910173e-01
1.883836453954910173e-01
1.730989682842949962e-01
1.730989682842949962e-01
1.730989682842949962e-01
1.780664883454337044e-01
1.780664883454337044e-01
1.914405808177302160e-01
1.914405808177302160e-01
1.914405808177302160e-01
1.757737867787542985e-01
1.757737867787542985e-01
1.788307222009934971e-01
1.788307222009934971e-01
1.788307222009934971e-01
1.914405808177302160e-01
1.914405808177302160e-01
1.975544516622086411e-01
1.975544516622086411e-01
1.975544516622086411e-01
1.899121131066106305e-01
1.899121131066106305e-01
1.956438670233091315e-01
1.956438670233091315e-01
1.956438670233091315e-01
1.723347344287352034e-01
1.723347344287352034e-01
1.727168513565150998e-01
1.727168513565150998e-01
1.727168513565150998e-01
1.899121131066106305e-01
1.899121131066106305e-01
1.734810852120748925e-01
1.734810852120748925e-01
1.734810852120748925e-01
1.730989682842949962e-01
1.730989682842949962e-01
1.719526175009552793e-01
1.719526175009552793e-01
1.719526175009552793e-01
1.864730607565915077e-01
1.864730607565915077e-01
1.715705005731753829e-01
1.715705005731753829e-01
1.715705005731753829e-01
1.868551776843714041e-01
1.868551776843714041e-01
1.841803591899121018e-01
1.841803591899121018e-01
1.841803591899121018e-01
1.688956820787160806e-01
1.688956820787160806e-01
1.922048146732900364e-01
1.922048146732900364e-01
1.922048146732900364e-01
1.899121131066106305e-01
1.899121131066106305e-01
1.666029805120366747e-01
1.666029805120366747e-01
1.666029805120366747e-01
1.685135651509361843e-01
1.685135651509361843e-01
1.818876576232326958e-01
1.818876576232326958e-01
1.818876576232326958e-01
1.711883836453954866e-01
1.711883836453954866e-01
1.734810852120748925e-01
1.734810852120748925e-01
1.734810852120748925e-01
1.845624761176920259e-01
1.845624761176920259e-01
1.773022544898739117e-01
1.773022544898739117e-01
1.773022544898739117e-01
1.834161253343523090e-01
1.834161253343523090e-01
1.692777990064959770e-01
1.692777990064959770e-01
1.692777990064959770e-01
1.673672143675964952e-01
1.673672143675964952e-01
1.757737867787542985e-01
1.757737867787542985e-01
1.757737867787542985e-01
1.708062667176155902e-01
1.708062667176155902e-01
1.860909438288116113e-01
1.860909438288116113e-01
1.860909438288116113e-01
1.750095529231945057e-01
1.750095529231945057e-01
1.876194115399312246e-01
1.876194115399312246e-01
1.876194115399312246e-01
1.857088269010317150e-01
1.857088269010317150e-01
1.987008024455483302e-01
1.987008024455483302e-01
1.987008024455483302e-01
1.746274359954146094e-01
1.746274359954146094e-01
2.048146732900267553e-01
2.048146732900267553e-01
1.876194115399312246e-01
1.876194115399312246e-01
1.876194115399312246e-01
2.151318303400840681e-01
2.151318303400840681e-01
1.964081008788689242e-01
1.964081008788689242e-01
1.964081008788689242e-01
2.246847535345815883e-01
2.246847535345815883e-01
2.078716087122659539e-01
2.078716087122659539e-01
2.078716087122659539e-01
2.430263660680168081e-01
2.430263660680168081e-01
2.426442491402369117e-01
2.426442491402369117e-01
2.426442491402369117e-01
2.353840275124187975e-01
2.353840275124187975e-01
2.598395108903324147e-01
2.598395108903324147e-01
2.598395108903324147e-01
2.724493695070691612e-01
2.724493695070691612e-01
2.678639663737103493e-01
2.678639663737103493e-01
2.678639663737103493e-01
2.697745510126098312e-01
2.697745510126098312e-01
2.892625143293847678e-01
2.892625143293847678e-01
2.892625143293847678e-01
3.014902560183416180e-01
3.014902560183416180e-01
3.003439052350019289e-01
3.003439052350019289e-01
3.003439052350019289e-01
3.030187237294612035e-01
3.030187237294612035e-01
3.377913641574321613e-01
3.377913641574321613e-01
3.377913641574321613e-01
3.400840657241115950e-01
3.400840657241115950e-01
3.412304165074512841e-01
3.412304165074512841e-01
3.412304165074512841e-01
3.588077951853266834e-01
3.588077951853266834e-01
3.584256782575467870e-01
3.584256782575467870e-01
3.584256782575467870e-01
3.664501337409247217e-01
3.664501337409247217e-01
3.821169277799006392e-01
3.821169277799006392e-01
