3.034008406572410999e-01
3.034008406572410999e-01
3.034008406572410999e-01
3.076041268628200154e-01
3.076041268628200154e-01
2.835307604126862668e-01
2.835307604126862668e-01
2.835307604126862668e-01
2.953763851738632207e-01
2.953763851738632207e-01
2.820022927015666814e-01
2.820022927015666814e-01
2.820022927015666814e-01
2.774168895682078695e-01
2.774168895682078695e-01
2.732136033626289540e-01
2.732136033626289540e-01
2.732136033626289540e-01
2.739778372181887467e-01
2.739778372181887467e-01
2.934658005349636833e-01
2.934658005349636833e-01
2.934658005349636833e-01
2.713030187237294721e-01
2.713030187237294721e-01
2.839128773404661632e-01
2.839128773404661632e-01
2.839128773404661632e-01
2.835307604126862668e-01
2.835307604126862668e-01
2.751241880015284913e-01
2.751241880015284913e-01
2.751241880015284913e-01
2.770347726404279731e-01
2.770347726404279731e-01
2.762705387848681804e-01
2.762705387848681804e-01
2.762705387848681804e-01
2.579289262514329328e-01
2.579289262514329328e-01
2.709209017959495758e-01
2.709209017959495758e-01
2.709209017959495758e-01
2.613679786014520556e-01
2.613679786014520556e-01
2.632785632403515375e-01
2.632785632403515375e-01
2.632785632403515375e-01
2.617500955292319520e-01
2.617500955292319520e-01
2.479938861291555163e-01
2.479938861291555163e-01
2.479938861291555163e-01
2.453190676346962140e-01
2.453190676346962140e-01
2.441727168513565249e-01
2.441727168513565249e-01
2.441727168513565249e-01
2.552541077569736583e-01
2.552541077569736583e-01
2.430263660680168081e-01
2.430263660680168081e-01
2.430263660680168081e-01
2.403515475735575058e-01
2.403515475735575058e-01
2.491402369124952332e-01
2.491402369124952332e-01
2.491402369124952332e-01
2.529614061902942246e-01
2.529614061902942246e-01
2.571646923958731401e-01
2.571646923958731401e-01
2.571646923958731401e-01
2.514329384791746391e-01
2.514329384791746391e-01
2.334734428735192879e-01
2.334734428735192879e-01
2.334734428735192879e-01
2.506687046236148464e-01
2.506687046236148464e-01
2.533435231180741209e-01
2.533435231180741209e-01
2.533435231180741209e-01
2.323270920901795988e-01
2.323270920901795988e-01
2.407336645013374021e-01
2.407336645013374021e-01
2.407336645013374021e-01
2.437905999235766008e-01
2.437905999235766008e-01
2.418800152846771190e-01
2.418800152846771190e-01
2.418800152846771190e-01
2.380588460068780998e-01
2.380588460068780998e-01
2.407336645013374021e-01
2.407336645013374021e-01
2.407336645013374021e-01
2.223920519679021823e-01
2.223920519679021823e-01
2.235384027512418714e-01
2.235384027512418714e-01
2.235384027512418714e-01
2.216278181123423896e-01
2.216278181123423896e-01
2.304165074512800893e-01
2.304165074512800893e-01
2.304165074512800893e-01
2.097821933511654635e-01
2.097821933511654635e-01
2.330913259457393916e-01
2.330913259457393916e-01
2.330913259457393916e-01
2.220099350401222860e-01
2.220099350401222860e-01
2.101643102789453599e-01
2.101643102789453599e-01
2.101643102789453599e-01
2.204814673290026728e-01
2.204814673290026728e-01
2.254489873901413810e-01
2.254489873901413810e-01
2.254489873901413810e-01
2.136033626289644549e-01
2.136033626289644549e-01
2.090179594956056430e-01
2.090179594956056430e-01
2.090179594956056430e-01
2.162781811234237572e-01
2.162781811234237572e-01
1.979365685899885374e-01
1.979365685899885374e-01
1.979365685899885374e-01
2.101643102789453599e-01
2.101643102789453599e-01
2.036683225066870384e-01
2.036683225066870384e-01
2.036683225066870384e-01
2.048146732900267553e-01
2.048146732900267553e-01
2.136033626289644549e-01
2.136033626289644549e-01
2.136033626289644549e-01
1.925869316010699328e-01
1.925869316010699328e-01
2.090179594956056430e-01
2.090179594956056430e-01
2.090179594956056430e-01
2.071073748567061612e-01
2.071073748567061612e-01
2.002292701566679434e-01
2.002292701566679434e-01
2.002292701566679434e-01
2.071073748567061612e-01
2.071073748567061612e-01
2.013756209400076325e-01
2.013756209400076325e-01
2.013756209400076325e-01
1.914405808177302160e-01
1.914405808177302160e-01
1.811234237676729031e-01
1.811234237676729031e-01
1.811234237676729031e-01
2.002292701566679434e-01
2.002292701566679434e-01
2.006113870844478397e-01
2.006113870844478397e-01
2.006113870844478397e-01
1.979365685899885374e-01
1.979365685899885374e-01
1.795949560565533176e-01
1.795949560565533176e-01
1.795949560565533176e-01
1.815055406954527994e-01
1.815055406954527994e-01
1.841803591899121018e-01
1.841803591899121018e-01
1.841803591899121018e-01
1.872372946121513282e-01
1.872372946121513282e-01
1.734810852120748925e-01
1.734810852120748925e-01
1.734810852120748925e-01
1.822697745510126199e-01
1.822697745510126199e-01
1.818876576232326958e-01
1.818876576232326958e-01
1.742453190676346853e-01
1.742453190676346853e-01
1.742453190676346853e-01
1.643102789453572687e-01
1.643102789453572687e-01
1.734810852120748925e-01
1.734810852120748925e-01
1.734810852120748925e-01
1.746274359954146094e-01
1.746274359954146094e-01
1.616354604508979664e-01
1.616354604508979664e-01
1.616354604508979664e-01
1.677493312953763915e-01
1.677493312953763915e-01
1.753916698509744021e-01
1.753916698509744021e-01
1.753916698509744021e-01
1.746274359954146094e-01
1.746274359954146094e-01
1.593427588842185605e-01
1.593427588842185605e-01
1.593427588842185605e-01
1.692777990064959770e-01
1.692777990064959770e-01
1.654566297286969856e-01
1.654566297286969856e-01
1.654566297286969856e-01
1.643102789453572687e-01
1.643102789453572687e-01
1.536110049675200595e-01
1.536110049675200595e-01
1.536110049675200595e-01
1.474971341230416622e-01
1.474971341230416622e-01
1.643102789453572687e-01
1.643102789453572687e-01
1.643102789453572687e-01
1.547573557508597764e-01
1.547573557508597764e-01
1.497898356897210681e-01
1.497898356897210681e-01
1.497898356897210681e-01
1.639281620175773724e-01
1.639281620175773724e-01
1.639281620175773724e-01
1.639281620175773724e-01
1.639281620175773724e-01
1.410011463507833407e-01
1.410011463507833407e-01
1.455865494841421526e-01
1.455865494841421526e-01
1.455865494841421526e-01
1.543752388230798522e-01
1.543752388230798522e-01
1.536110049675200595e-01
1.536110049675200595e-01
1.536110049675200595e-01
1.623996943064577869e-01
1.623996943064577869e-01
1.547573557508597764e-01
1.547573557508597764e-01
1.547573557508597764e-01
1.337409247229652265e-01
1.337409247229652265e-01
1.364157432174245288e-01
1.364157432174245288e-01
1.364157432174245288e-01
1.467329002674818417e-01
1.467329002674818417e-01
1.333588077951853301e-01
1.333588077951853301e-01
1.333588077951853301e-01
1.291555215896064146e-01
1.291555215896064146e-01
1.291555215896064146e-01
1.291555215896064146e-01
1.291555215896064146e-01
1.478792510508215585e-01
1.478792510508215585e-01
1.432938479174627466e-01
1.432938479174627466e-01
1.432938479174627466e-01
1.268628200229270087e-01
1.268628200229270087e-01
1.360336262896446324e-01
1.360336262896446324e-01
1.360336262896446324e-01
1.199847153228888047e-01
1.199847153228888047e-01
1.356515093618647361e-01
1.356515093618647361e-01
1.356515093618647361e-01
1.253343523118074232e-01
1.253343523118074232e-01
1.432938479174627466e-01
1.432938479174627466e-01
1.432938479174627466e-01
1.234237676729079136e-01
1.234237676729079136e-01
1.249522353840275130e-01
1.249522353840275130e-01
1.249522353840275130e-01
1.253343523118074232e-01
1.253343523118074232e-01
1.333588077951853301e-01
1.333588077951853301e-01
1.333588077951853301e-01
1.153993121895299928e-01
1.153993121895299928e-01
1.337409247229652265e-01
1.337409247229652265e-01
1.337409247229652265e-01
1.348872755063049156e-01
1.348872755063049156e-01
1.119602598395108839e-01
1.119602598395108839e-01
1.119602598395108839e-01
1.203668322506687011e-01
1.203668322506687011e-01
1.287734046618265182e-01
1.287734046618265182e-01
1.287734046618265182e-01
1.264807030951471123e-01
1.264807030951471123e-01
1.226595338173481070e-01
1.226595338173481070e-01
1.226595338173481070e-01
1.153993121895299928e-01
1.153993121895299928e-01
1.089033244172716852e-01
1.089033244172716852e-01
1.089033244172716852e-01
1.157814291173099031e-01
1.157814291173099031e-01
1.043179212839128733e-01
1.043179212839128733e-01
1.043179212839128733e-01
1.226595338173481070e-01
1.226595338173481070e-01
1.203668322506687011e-01
1.203668322506687011e-01
1.203668322506687011e-01
1.008788689338937783e-01
1.008788689338937783e-01
1.199847153228888047e-01
1.199847153228888047e-01
1.199847153228888047e-01
1.024073366450133776e-01
1.024073366450133776e-01
9.743981658387466938e-02
9.743981658387466938e-02
9.743981658387466938e-02
1.069927397783721756e-01
1.069927397783721756e-01
1.027894535727932740e-01
1.027894535727932740e-01
1.027894535727932740e-01
1.150171952617500964e-01
1.150171952617500964e-01
9.896828429499426871e-02
9.896828429499426871e-02
9.896828429499426871e-02
9.476499808941536707e-02
9.476499808941536707e-02
1.119602598395108839e-01
1.119602598395108839e-01
1.119602598395108839e-01
9.629346580053496640e-02
9.629346580053496640e-02
9.935040122277416508e-02
9.935040122277416508e-02
9.935040122277416508e-02
1.050821551394726799e-01
1.050821551394726799e-01
9.247229652273596112e-02
9.247229652273596112e-02
9.247229652273596112e-02
1.043179212839128733e-01
1.043179212839128733e-01
9.858616736721437235e-02
9.858616736721437235e-02
9.858616736721437235e-02
9.094382881161634791e-02
9.094382881161634791e-02
1.089033244172716852e-01
1.089033244172716852e-01
1.089033244172716852e-01
1.073748567061520859e-01
1.073748567061520859e-01
9.591134887275505616e-02
9.591134887275505616e-02
9.591134887275505616e-02
1.127244936950706905e-01
1.127244936950706905e-01
1.089033244172716852e-01
1.089033244172716852e-01
1.089033244172716852e-01
9.361864730607566409e-02
9.361864730607566409e-02
8.788689338937714923e-02
8.788689338937714923e-02
8.788689338937714923e-02
8.597630875047763965e-02
8.597630875047763965e-02
8.788689338937714923e-02
8.788689338937714923e-02
1.081390905617118786e-01
1.081390905617118786e-01
1.081390905617118786e-01
9.209017959495605088e-02
9.209017959495605088e-02
1.043179212839128733e-01
1.043179212839128733e-01
1.043179212839128733e-01
1.073748567061520859e-01
1.073748567061520859e-01
1.069927397783721756e-01
1.069927397783721756e-01
1.069927397783721756e-01
1.024073366450133776e-01
1.024073366450133776e-01
1.004967520061138680e-01
1.004967520061138680e-01
1.004967520061138680e-01
8.979747802827665881e-02
8.979747802827665881e-02
9.132594573939625815e-02
9.132594573939625815e-02
9.132594573939625815e-02
8.482995796713795056e-02
8.482995796713795056e-02
9.323653037829575385e-02
9.323653037829575385e-02
9.323653037829575385e-02
1.058463889950324865e-01
1.058463889950324865e-01
1.062285059228123829e-01
1.062285059228123829e-01
1.062285059228123829e-01
8.291937332823844098e-02
8.291937332823844098e-02
9.438288116163545682e-02
9.438288116163545682e-02
9.438288116163545682e-02
8.521207489491784692e-02
8.521207489491784692e-02
9.973251815055407532e-02
9.973251815055407532e-02
9.973251815055407532e-02
8.941536110049674857e-02
8.941536110049674857e-02
9.973251815055407532e-02
9.973251815055407532e-02
9.973251815055407532e-02
9.438288116163545682e-02
9.438288116163545682e-02
8.941536110049674857e-02
8.941536110049674857e-02
8.941536110049674857e-02
1.039358043561329770e-01
1.039358043561329770e-01
9.170806266717615451e-02
9.170806266717615451e-02
9.170806266717615451e-02
1.035536874283530806e-01
1.035536874283530806e-01
9.973251815055407532e-02
9.973251815055407532e-02
9.973251815055407532e-02
8.826901031715704560e-02
8.826901031715704560e-02
8.941536110049674857e-02
8.941536110049674857e-02
8.941536110049674857e-02
8.444784103935804032e-02
8.444784103935804032e-02
8.559419182269774329e-02
8.559419182269774329e-02
8.559419182269774329e-02
9.858616736721437235e-02
9.858616736721437235e-02
8.253725640045854461e-02
8.253725640045854461e-02
8.253725640045854461e-02
8.674054260603744626e-02
8.674054260603744626e-02
8.368360718379824759e-02
8.368360718379824759e-02
8.368360718379824759e-02
8.788689338937714923e-02
8.788689338937714923e-02
8.979747802827665881e-02
8.979747802827665881e-02
8.979747802827665881e-02
7.527703477264043042e-02
7.527703477264043042e-02
7.756973633931983636e-02
7.756973633931983636e-02
7.756973633931983636e-02
7.948032097821933206e-02
7.948032097821933206e-02
9.132594573939625815e-02
9.132594573939625815e-02
9.132594573939625815e-02
7.986243790599924230e-02
7.986243790599924230e-02
8.062667176155903503e-02
8.062667176155903503e-02
8.062667176155903503e-02
7.183798242262132150e-02
7.183798242262132150e-02
9.209017959495605088e-02
9.209017959495605088e-02
9.209017959495605088e-02
8.177302254489873801e-02
8.177302254489873801e-02
8.139090561711884164e-02
8.139090561711884164e-02
8.139090561711884164e-02
7.718761941153992612e-02
7.718761941153992612e-02
7.718761941153992612e-02
7.718761941153992612e-02
7.718761941153992612e-02
7.413068398930072744e-02
7.413068398930072744e-02
9.056171188383645154e-02
9.056171188383645154e-02
9.056171188383645154e-02
7.489491784486053405e-02
7.489491784486053405e-02
8.444784103935804032e-02
8.444784103935804032e-02
8.444784103935804032e-02
8.368360718379824759e-02
8.368360718379824759e-02
1.069927397783721756e-01
1.069927397783721756e-01
1.069927397783721756e-01
1.073748567061520859e-01
1.073748567061520859e-01
9.514711501719526343e-02
9.514711501719526343e-02
9.514711501719526343e-02
1.039358043561329770e-01
1.039358043561329770e-01
1.066106228505922793e-01
1.066106228505922793e-01
1.066106228505922793e-01
1.134887275506304971e-01
1.134887275506304971e-01
1.303018723729461315e-01
1.303018723729461315e-01
1.303018723729461315e-01
1.413832632785632371e-01
1.413832632785632371e-01
1.455865494841421526e-01
1.455865494841421526e-01
1.455865494841421526e-01
1.559037065341994654e-01
1.559037065341994654e-01
1.776843714176538080e-01
1.776843714176538080e-01
1.776843714176538080e-01
1.761559037065341948e-01
1.761559037065341948e-01
1.830340084065724127e-01
1.830340084065724127e-01
1.830340084065724127e-01
2.078716087122659539e-01
2.078716087122659539e-01
2.116927779900649731e-01
2.116927779900649731e-01
2.116927779900649731e-01
2.346197936568590048e-01
2.346197936568590048e-01
2.495223538402751295e-01
2.495223538402751295e-01
2.495223538402751295e-01
2.449369507069163177e-01
2.449369507069163177e-01
2.525792892625143282e-01
2.525792892625143282e-01
2.525792892625143282e-01
2.835307604126862668e-01
2.835307604126862668e-01
2.892625143293847678e-01
2.892625143293847678e-01
2.892625143293847678e-01
2.927015666794038906e-01
2.927015666794038906e-01
3.095147115017195527e-01
3.095147115017195527e-01
3.095147115017195527e-01
3.175391669850974319e-01
3.175391669850974319e-01
3.385555980129919540e-01
3.385555980129919540e-01
3.385555980129919540e-01
3.477264042797095778e-01
3.477264042797095778e-01
3.565150936186473052e-01
3.565150936186473052e-01
3.565150936186473052e-01
3.683607183798242035e-01
3.683607183798242035e-01
3.798242262132212610e-01
3.798242262132212610e-01
3.802063431410011574e-01
3.802063431410011574e-01
3.802063431410011574e-01
3.985479556744364049e-01
3.985479556744364049e-01
4.027512418800152649e-01
4.027512418800152649e-01
4.027512418800152649e-01
4.249140236912495316e-01
4.249140236912495316e-01
4.123041650745127851e-01
4.123041650745127851e-01
4.123041650745127851e-01
4.333205961024073627e-01
4.333205961024073627e-01
4.394344669468857600e-01
4.394344669468857600e-01
4.394344669468857600e-01
4.401987008024455528e-01
4.401987008024455528e-01
4.497516239969430729e-01
4.497516239969430729e-01
4.497516239969430729e-01
4.585403133358808003e-01
4.585403133358808003e-01
4.688574703859381132e-01
4.688574703859381132e-01
4.688574703859381132e-01
4.654184180359189904e-01
4.654184180359189904e-01
4.642720672525793013e-01
4.642720672525793013e-01
4.642720672525793013e-01
4.852884982804738234e-01
4.852884982804738234e-01
4.826136797860144934e-01
4.826136797860144934e-01
4.826136797860144934e-01
4.982804738249904664e-01
4.982804738249904664e-01
4.910202521971723244e-01
4.910202521971723244e-01
4.910202521971723244e-01
4.994268246083301555e-01
4.994268246083301555e-01
4.914023691249522208e-01
4.914023691249522208e-01
4.914023691249522208e-01
4.948414214749713436e-01
4.948414214749713436e-01
5.139472678639663838e-01
5.139472678639663838e-01
5.139472678639663838e-01
5.139472678639663838e-01
5.139472678639663838e-01
5.005731753916699001e-01
5.005731753916699001e-01
5.005731753916699001e-01
5.120366832250669020e-01
5.120366832250669020e-01
5.135651509361864875e-01
5.135651509361864875e-01
5.135651509361864875e-01
5.162399694306457620e-01
5.162399694306457620e-01
5.204432556362247331e-01
5.204432556362247331e-01
5.204432556362247331e-01
5.196790217806648293e-01
5.196790217806648293e-01
5.097439816583874128e-01
5.097439816583874128e-01
5.097439816583874128e-01
5.235001910584639040e-01
5.235001910584639040e-01
5.166220863584256584e-01
5.166220863584256584e-01
5.166220863584256584e-01
5.277034772640427640e-01
5.277034772640427640e-01
5.196790217806648293e-01
5.196790217806648293e-01
5.196790217806648293e-01
5.280855941918226604e-01
5.280855941918226604e-01
5.192969048528849330e-01
5.192969048528849330e-01
5.192969048528849330e-01
5.284677111196025567e-01
5.284677111196025567e-01
5.219717233473443185e-01
5.219717233473443185e-01
5.219717233473443185e-01
5.108903324417272129e-01
5.108903324417272129e-01
5.150936186473060729e-01
5.150936186473060729e-01
5.150936186473060729e-01
5.093618647306075164e-01
5.093618647306075164e-01
5.204432556362247331e-01
5.204432556362247331e-01
5.204432556362247331e-01
5.227359572029041113e-01
5.227359572029041113e-01
5.166220863584256584e-01
5.166220863584256584e-01
5.166220863584256584e-01
5.131830340084065911e-01
5.131830340084065911e-01
5.158578525028658657e-01
5.158578525028658657e-01
5.158578525028658657e-01
5.189147879251050366e-01
5.189147879251050366e-01
5.185326709973251402e-01
5.185326709973251402e-01
5.185326709973251402e-01
5.166220863584256584e-01
5.166220863584256584e-01
5.154757355750859693e-01
5.154757355750859693e-01
5.154757355750859693e-01
4.978983568972105700e-01
4.978983568972105700e-01
5.047764615972487601e-01
5.047764615972487601e-01
5.047764615972487601e-01
4.994268246083301555e-01
4.994268246083301555e-01
4.894917844860527389e-01
4.894917844860527389e-01
4.894917844860527389e-01
4.944593045471914472e-01
4.944593045471914472e-01
5.028658769583492782e-01
5.028658769583492782e-01
5.028658769583492782e-01
4.837600305693542380e-01
4.837600305693542380e-01
4.944593045471914472e-01
4.944593045471914472e-01
4.944593045471914472e-01
4.921666029805120135e-01
4.921666029805120135e-01
4.814673290026748043e-01
4.814673290026748043e-01
4.814673290026748043e-01
4.692395873137180096e-01
4.692395873137180096e-01
4.692395873137180096e-01
4.692395873137180096e-01
4.692395873137180096e-01
4.696217042414979059e-01
4.696217042414979059e-01
4.512800917080626584e-01
4.512800917080626584e-01
4.512800917080626584e-01
4.692395873137180096e-01
4.692395873137180096e-01
4.489873901413832802e-01
4.489873901413832802e-01
4.489873901413832802e-01
4.585403133358808003e-01
4.585403133358808003e-01
4.401987008024455528e-01
4.401987008024455528e-01
4.401987008024455528e-01
4.466946885747038465e-01
4.466946885747038465e-01
4.371417653802063263e-01
4.371417653802063263e-01
4.371417653802063263e-01
4.264424914023691171e-01
4.264424914023691171e-01
4.195643867023309270e-01
4.195643867023309270e-01
4.195643867023309270e-01
4.142147497134123224e-01
4.142147497134123224e-01
4.230034390523499943e-01
4.230034390523499943e-01
4.230034390523499943e-01
4.008406572411157831e-01
4.008406572411157831e-01
3.920519679021780557e-01
3.920519679021780557e-01
3.920519679021780557e-01
3.870844478410393474e-01
3.870844478410393474e-01
3.928162017577378484e-01
3.928162017577378484e-01
3.928162017577378484e-01
3.905235001910584702e-01
3.905235001910584702e-01
3.782957585021016200e-01
3.782957585021016200e-01
3.782957585021016200e-01
3.805884600687810537e-01
3.805884600687810537e-01
3.760030569354222418e-01
3.760030569354222418e-01
3.760030569354222418e-01
3.530760412686281824e-01
3.530760412686281824e-01
3.546045089797478234e-01
3.546045089797478234e-01
3.419946503630110768e-01
3.419946503630110768e-01
3.419946503630110768e-01
3.362628964463125758e-01
3.362628964463125758e-01
3.374092472296522649e-01
3.374092472296522649e-01
3.374092472296522649e-01
3.297669086740542821e-01
3.297669086740542821e-01
3.247993886129155738e-01
3.247993886129155738e-01
3.247993886129155738e-01
3.228888039740160365e-01
3.228888039740160365e-01
3.244172716851356775e-01
3.244172716851356775e-01
3.244172716851356775e-01
3.118074130683989309e-01
3.118074130683989309e-01
3.095147115017195527e-01
3.095147115017195527e-01
3.095147115017195527e-01
3.056935422239205336e-01
3.056935422239205336e-01
2.907909820405044088e-01
2.907909820405044088e-01
2.907909820405044088e-01
2.923194497516239942e-01
2.923194497516239942e-01
2.869698127627053896e-01
2.869698127627053896e-01
2.869698127627053896e-01
2.842949942682460596e-01
2.842949942682460596e-01
2.953763851738632207e-01
2.953763851738632207e-01
2.953763851738632207e-01
2.934658005349636833e-01
2.934658005349636833e-01
2.884982804738249751e-01
2.884982804738249751e-01
2.884982804738249751e-01
2.835307604126862668e-01
2.835307604126862668e-01
2.850592281238059078e-01
2.850592281238059078e-01
2.850592281238059078e-01
2.636606801681314338e-01
2.636606801681314338e-01
2.651891478792510748e-01
2.651891478792510748e-01
2.651891478792510748e-01
2.713030187237294721e-01
2.713030187237294721e-01
2.609858616736721593e-01
2.609858616736721593e-01
2.609858616736721593e-01
2.594573939625525183e-01
2.594573939625525183e-01
2.678639663737103493e-01
2.678639663737103493e-01
2.678639663737103493e-01
2.590752770347726219e-01
2.590752770347726219e-01
2.537256400458540173e-01
2.537256400458540173e-01
2.537256400458540173e-01
2.594573939625525183e-01
2.594573939625525183e-01
2.567825754680932437e-01
2.567825754680932437e-01
2.567825754680932437e-01
2.430263660680168081e-01
2.430263660680168081e-01
2.353840275124187975e-01
2.353840275124187975e-01
2.353840275124187975e-01
2.487581199847153091e-01
2.487581199847153091e-01
2.372946121513183071e-01
2.372946121513183071e-01
2.372946121513183071e-01
2.521971723347344319e-01
2.521971723347344319e-01
2.384409629346579962e-01
2.384409629346579962e-01
2.384409629346579962e-01
2.445548337791364213e-01
2.445548337791364213e-01
2.422621322124570153e-01
2.422621322124570153e-01
2.422621322124570153e-01
2.376767290790982035e-01
2.376767290790982035e-01
2.361482613679785902e-01
2.361482613679785902e-01
2.361482613679785902e-01
2.350019105846389011e-01
2.350019105846389011e-01
2.262132212457011737e-01
2.262132212457011737e-01
2.262132212457011737e-01
2.334734428735192879e-01
2.334734428735192879e-01
2.227741688956820787e-01
2.227741688956820787e-01
2.227741688956820787e-01
2.338555598012991843e-01
2.338555598012991843e-01
2.288880397401604760e-01
2.288880397401604760e-01
2.288880397401604760e-01
2.158960641956438609e-01
2.158960641956438609e-01
2.216278181123423896e-01
2.216278181123423896e-01
2.216278181123423896e-01
2.288880397401604760e-01
2.288880397401604760e-01
2.116927779900649731e-01
2.116927779900649731e-01
2.116927779900649731e-01
2.239205196790217678e-01
2.239205196790217678e-01
2.071073748567061612e-01
2.071073748567061612e-01
2.071073748567061612e-01
2.136033626289644549e-01
2.136033626289644549e-01
2.094000764233855671e-01
2.094000764233855671e-01
2.094000764233855671e-01
2.116927779900649731e-01
2.116927779900649731e-01
2.212457011845624655e-01
2.212457011845624655e-01
2.212457011845624655e-01
2.170424149789835777e-01
2.170424149789835777e-01
2.193351165456629837e-01
2.193351165456629837e-01
2.193351165456629837e-01
2.101643102789453599e-01
2.101643102789453599e-01
2.021398547955674529e-01
2.021398547955674529e-01
2.021398547955674529e-01
1.987008024455483302e-01
1.987008024455483302e-01
2.109285441345051526e-01
2.109285441345051526e-01
2.109285441345051526e-01
1.956438670233091315e-01
1.956438670233091315e-01
2.059610240733664444e-01
2.059610240733664444e-01
2.059610240733664444e-01
2.059610240733664444e-01
2.059610240733664444e-01
1.895299961788307341e-01
1.895299961788307341e-01
1.895299961788307341e-01
2.006113870844478397e-01
2.006113870844478397e-01
2.040504394344669348e-01
2.040504394344669348e-01
2.040504394344669348e-01
1.872372946121513282e-01
1.872372946121513282e-01
1.837982422621322054e-01
1.837982422621322054e-01
1.837982422621322054e-01
1.990829193733282265e-01
1.990829193733282265e-01
1.944975162399694424e-01
1.944975162399694424e-01
1.944975162399694424e-01
1.837982422621322054e-01
1.837982422621322054e-01
1.780664883454337044e-01
1.780664883454337044e-01
1.780664883454337044e-01
1.899121131066106305e-01
1.899121131066106305e-01
1.704241497898356938e-01
1.704241497898356938e-01
1.704241497898356938e-01
1.811234237676729031e-01
1.811234237676729031e-01
1.818876576232326958e-01
1.818876576232326958e-01
1.818876576232326958e-01
1.753916698509744021e-01
1.753916698509744021e-01
1.673672143675964952e-01
1.673672143675964952e-01
1.673672143675964952e-01
1.799770729843332140e-01
1.799770729843332140e-01
1.608712265953381737e-01
1.608712265953381737e-01
1.788307222009934971e-01
1.788307222009934971e-01
1.788307222009934971e-01
1.738632021398547889e-01
1.738632021398547889e-01
1.547573557508597764e-01
1.547573557508597764e-01
1.547573557508597764e-01
1.761559037065341948e-01
1.761559037065341948e-01
1.551394726786396727e-01
1.551394726786396727e-01
1.551394726786396727e-01
1.562858234619793618e-01
1.562858234619793618e-01
1.723347344287352034e-01
1.723347344287352034e-01
1.723347344287352034e-01
1.505540695452808608e-01
1.505540695452808608e-01
1.532288880397401631e-01
1.532288880397401631e-01
1.532288880397401631e-01
1.616354604508979664e-01
1.616354604508979664e-01
1.505540695452808608e-01
1.505540695452808608e-01
1.505540695452808608e-01
1.410011463507833407e-01
1.410011463507833407e-01
1.478792510508215585e-01
1.478792510508215585e-01
1.478792510508215585e-01
1.513183034008406536e-01
1.513183034008406536e-01
1.413832632785632371e-01
1.413832632785632371e-01
1.413832632785632371e-01
1.356515093618647361e-01
1.356515093618647361e-01
1.345051585785250192e-01
1.345051585785250192e-01
1.345051585785250192e-01
1.463507833397019453e-01
1.463507833397019453e-01
1.310661062285059242e-01
1.310661062285059242e-01
1.310661062285059242e-01
1.448223156285823598e-01
1.448223156285823598e-01
1.280091708062667255e-01
1.280091708062667255e-01
1.280091708062667255e-01
1.341230416507451229e-01
1.341230416507451229e-01
1.211310661062285077e-01
1.211310661062285077e-01
1.211310661062285077e-01
1.215131830340084040e-01
1.215131830340084040e-01
1.360336262896446324e-01
1.360336262896446324e-01
1.360336262896446324e-01
1.276270538784868291e-01
1.276270538784868291e-01
1.371799770729843215e-01
1.371799770729843215e-01
1.371799770729843215e-01
1.165456629728696958e-01
1.165456629728696958e-01
1.207489491784486113e-01
1.207489491784486113e-01
1.207489491784486113e-01
1.157814291173099031e-01
1.157814291173099031e-01
1.360336262896446324e-01
1.360336262896446324e-01
1.360336262896446324e-01
1.180741306839892951e-01
1.180741306839892951e-01
1.241880015284677063e-01
1.241880015284677063e-01
1.241880015284677063e-01
1.249522353840275130e-01
1.249522353840275130e-01
1.127244936950706905e-01
1.127244936950706905e-01
1.127244936950706905e-01
1.111960259839510912e-01
1.111960259839510912e-01
1.249522353840275130e-01
1.249522353840275130e-01
1.249522353840275130e-01
1.180741306839892951e-01
1.180741306839892951e-01
1.249522353840275130e-01
1.249522353840275130e-01
1.249522353840275130e-01
1.249522353840275130e-01
1.249522353840275130e-01
1.176920137562093988e-01
1.176920137562093988e-01
1.176920137562093988e-01
1.234237676729079136e-01
1.234237676729079136e-01
1.104317921283912846e-01
1.104317921283912846e-01
1.104317921283912846e-01
1.245701184562476166e-01
1.245701184562476166e-01
1.192204814673289981e-01
1.192204814673289981e-01
1.192204814673289981e-01
1.092854413450515816e-01
1.092854413450515816e-01
1.192204814673289981e-01
1.192204814673289981e-01
1.192204814673289981e-01
1.184562476117692054e-01
1.184562476117692054e-01
1.031715705005731704e-01
1.031715705005731704e-01
1.031715705005731704e-01
1.001146350783339717e-01
1.001146350783339717e-01
9.743981658387466938e-02
9.743981658387466938e-02
9.743981658387466938e-02
1.134887275506304971e-01
1.134887275506304971e-01
1.039358043561329770e-01
1.039358043561329770e-01
1.039358043561329770e-01
1.138708444784103935e-01
1.138708444784103935e-01
1.008788689338937783e-01
1.008788689338937783e-01
1.008788689338937783e-01
1.153993121895299928e-01
1.153993121895299928e-01
9.438288116163545682e-02
9.438288116163545682e-02
9.438288116163545682e-02
9.591134887275505616e-02
9.591134887275505616e-02
1.108139090561711948e-01
1.108139090561711948e-01
1.108139090561711948e-01
1.024073366450133776e-01
1.024073366450133776e-01
1.108139090561711948e-01
1.108139090561711948e-01
1.108139090561711948e-01
1.016431027894535710e-01
1.016431027894535710e-01
9.170806266717615451e-02
9.170806266717615451e-02
9.170806266717615451e-02
1.062285059228123829e-01
1.062285059228123829e-01
1.115781429117309875e-01
1.115781429117309875e-01
1.115781429117309875e-01
1.008788689338937783e-01
1.008788689338937783e-01
9.820405043943446211e-02
9.820405043943446211e-02
9.820405043943446211e-02
9.667558272831486277e-02
9.667558272831486277e-02
9.896828429499426871e-02
9.896828429499426871e-02
9.896828429499426871e-02
8.750477646159725287e-02
8.750477646159725287e-02
8.444784103935804032e-02
8.444784103935804032e-02
8.444784103935804032e-02
1.073748567061520859e-01
1.073748567061520859e-01
9.094382881161634791e-02
9.094382881161634791e-02
9.094382881161634791e-02
9.858616736721437235e-02
9.858616736721437235e-02
9.820405043943446211e-02
9.820405043943446211e-02
9.820405043943446211e-02
9.514711501719526343e-02
9.514711501719526343e-02
8.826901031715704560e-02
8.826901031715704560e-02
8.826901031715704560e-02
8.903324417271685220e-02
8.903324417271685220e-02
1.043179212839128733e-01
1.043179212839128733e-01
1.043179212839128733e-01
7.986243790599924230e-02
7.986243790599924230e-02
8.941536110049674857e-02
8.941536110049674857e-02
7.909820405043943570e-02
7.909820405043943570e-02
7.909820405043943570e-02
7.795185326709973272e-02
7.795185326709973272e-02
9.056171188383645154e-02
9.056171188383645154e-02
9.056171188383645154e-02
1.031715705005731704e-01
1.031715705005731704e-01
9.973251815055407532e-02
9.973251815055407532e-02
9.973251815055407532e-02
8.788689338937714923e-02
8.788689338937714923e-02
9.400076423385556046e-02
9.400076423385556046e-02
9.400076423385556046e-02
7.871608712265953933e-02
7.871608712265953933e-02
1.001146350783339717e-01
1.001146350783339717e-01
1.001146350783339717e-01
9.782193351165456574e-02
9.782193351165456574e-02
7.986243790599924230e-02
7.986243790599924230e-02
7.986243790599924230e-02
7.718761941153992612e-02
7.718761941153992612e-02
8.712265953381734263e-02
8.712265953381734263e-02
8.712265953381734263e-02
8.826901031715704560e-02
8.826901031715704560e-02
9.973251815055407532e-02
9.973251815055407532e-02
9.973251815055407532e-02
9.323653037829575385e-02
9.323653037829575385e-02
9.170806266717615451e-02
9.170806266717615451e-02
9.170806266717615451e-02
8.139090561711884164e-02
8.139090561711884164e-02
8.139090561711884164e-02
8.139090561711884164e-02
8.139090561711884164e-02
1.024073366450133776e-01
1.024073366450133776e-01
8.444784103935804032e-02
8.444784103935804032e-02
8.444784103935804032e-02
9.896828429499426871e-02
9.896828429499426871e-02
8.024455483377913867e-02
8.024455483377913867e-02
8.024455483377913867e-02
8.712265953381734263e-02
8.712265953381734263e-02
8.826901031715704560e-02
8.826901031715704560e-02
8.826901031715704560e-02
8.712265953381734263e-02
8.712265953381734263e-02
8.215513947267863437e-02
8.215513947267863437e-02
8.215513947267863437e-02
1.016431027894535710e-01
1.016431027894535710e-01
8.750477646159725287e-02
8.750477646159725287e-02
8.750477646159725287e-02
9.552923194497515980e-02
9.552923194497515980e-02
9.973251815055407532e-02
9.973251815055407532e-02
9.973251815055407532e-02
9.973251815055407532e-02
9.973251815055407532e-02
9.094382881161634791e-02
9.094382881161634791e-02
9.094382881161634791e-02
1.001146350783339717e-01
1.001146350783339717e-01
9.552923194497515980e-02
9.552923194497515980e-02
9.552923194497515980e-02
8.597630875047763965e-02
8.597630875047763965e-02
8.215513947267863437e-02
8.215513947267863437e-02
8.215513947267863437e-02
1.020252197172334674e-01
1.020252197172334674e-01
8.253725640045854461e-02
8.253725640045854461e-02
8.253725640045854461e-02
9.782193351165456574e-02
9.782193351165456574e-02
9.514711501719526343e-02
9.514711501719526343e-02
9.514711501719526343e-02
9.629346580053496640e-02
9.629346580053496640e-02
8.062667176155903503e-02
8.062667176155903503e-02
8.062667176155903503e-02
8.291937332823844098e-02
8.291937332823844098e-02
1.004967520061138680e-01
1.004967520061138680e-01
1.004967520061138680e-01
8.979747802827665881e-02
8.979747802827665881e-02
9.743981658387466938e-02
9.743981658387466938e-02
9.743981658387466938e-02
9.514711501719526343e-02
9.514711501719526343e-02
8.597630875047763965e-02
8.597630875047763965e-02
8.597630875047763965e-02
7.986243790599924230e-02
7.986243790599924230e-02
9.896828429499426871e-02
9.896828429499426871e-02
9.896828429499426871e-02
8.291937332823844098e-02
8.291937332823844098e-02
8.368360718379824759e-02
8.368360718379824759e-02
8.368360718379824759e-02
9.858616736721437235e-02
9.858616736721437235e-02
8.330149025601833734e-02
8.330149025601833734e-02
8.330149025601833734e-02
8.979747802827665881e-02
8.979747802827665881e-02
7.948032097821933206e-02
7.948032097821933206e-02
7.948032097821933206e-02
9.973251815055407532e-02
9.973251815055407532e-02
8.635842567825754990e-02
8.635842567825754990e-02
8.635842567825754990e-02
7.527703477264043042e-02
7.527703477264043042e-02
8.482995796713795056e-02
8.482995796713795056e-02
8.482995796713795056e-02
1.020252197172334674e-01
1.020252197172334674e-01
8.674054260603744626e-02
8.674054260603744626e-02
8.674054260603744626e-02
8.865112724493695584e-02
8.865112724493695584e-02
7.871608712265953933e-02
7.871608712265953933e-02
7.871608712265953933e-02
8.368360718379824759e-02
8.368360718379824759e-02
8.482995796713795056e-02
8.482995796713795056e-02
8.482995796713795056e-02
8.559419182269774329e-02
8.559419182269774329e-02
8.597630875047763965e-02
8.597630875047763965e-02
8.597630875047763965e-02
9.361864730607566409e-02
9.361864730607566409e-02
1.115781429117309875e-01
1.115781429117309875e-01
1.115781429117309875e-01
9.170806266717615451e-02
9.170806266717615451e-02
1.146350783339702001e-01
1.146350783339702001e-01
1.146350783339702001e-01
1.073748567061520859e-01
1.073748567061520859e-01
1.111960259839510912e-01
1.111960259839510912e-01
1.111960259839510912e-01
1.138708444784103935e-01
1.138708444784103935e-01
1.356515093618647361e-01
1.356515093618647361e-01
1.356515093618647361e-01
1.325945739396255374e-01
1.325945739396255374e-01
1.513183034008406536e-01
1.513183034008406536e-01
1.513183034008406536e-01
1.696599159342759011e-01
1.696599159342759011e-01
1.562858234619793618e-01
1.562858234619793618e-01
1.562858234619793618e-01
1.708062667176155902e-01
1.708062667176155902e-01
1.860909438288116113e-01
1.860909438288116113e-01
2.071073748567061612e-01
2.071073748567061612e-01
2.071073748567061612e-01
2.097821933511654635e-01
2.097821933511654635e-01
2.128391287734046622e-01
2.128391287734046622e-01
2.128391287734046622e-01
2.200993504012227764e-01
2.200993504012227764e-01
2.407336645013374021e-01
2.407336645013374021e-01
2.407336645013374021e-01
2.491402369124952332e-01
2.491402369124952332e-01
2.713030187237294721e-01
2.713030187237294721e-01
2.713030187237294721e-01
2.800917080626671996e-01
2.800917080626671996e-01
2.884982804738249751e-01
2.884982804738249751e-01
2.884982804738249751e-01
3.106610622850592418e-01
3.106610622850592418e-01
3.202139854795567619e-01
3.202139854795567619e-01
3.202139854795567619e-01
3.167749331295376392e-01
3.167749331295376392e-01
3.423767672907909732e-01
3.423767672907909732e-01
3.423767672907909732e-01
3.599541459686664280e-01
3.599541459686664280e-01
3.565150936186473052e-01
3.565150936186473052e-01
3.565150936186473052e-01
3.752388230798624491e-01
3.752388230798624491e-01
3.889950324799388848e-01
3.889950324799388848e-01
3.889950324799388848e-01
3.962552541077569712e-01
3.962552541077569712e-01
4.061902942300343877e-01
4.061902942300343877e-01
4.061902942300343877e-01
4.153611004967520115e-01
4.153611004967520115e-01
4.149789835689721151e-01
4.149789835689721151e-01
4.149789835689721151e-01
4.424914023691249310e-01
4.424914023691249310e-01
4.249140236912495316e-01
4.249140236912495316e-01
4.249140236912495316e-01
4.390523500191058637e-01
4.390523500191058637e-01
4.482231562858234875e-01
4.482231562858234875e-01
4.482231562858234875e-01
4.512800917080626584e-01
4.512800917080626584e-01
4.703859380970576987e-01
4.703859380970576987e-01
4.703859380970576987e-01
4.822315628582345970e-01
4.822315628582345970e-01
4.879633167749331535e-01
4.879633167749331535e-01
4.879633167749331535e-01
4.761176920137561996e-01
4.761176920137561996e-01
5.005731753916699001e-01
5.005731753916699001e-01
5.005731753916699001e-01
4.933129537638517581e-01
4.933129537638517581e-01
5.040122277416889673e-01
5.040122277416889673e-01
5.040122277416889673e-01
5.089797478028276201e-01
5.089797478028276201e-01
4.998089415361100518e-01
4.998089415361100518e-01
4.998089415361100518e-01
5.101260985861674202e-01
5.101260985861674202e-01
5.257928926251432822e-01
5.257928926251432822e-01
5.257928926251432822e-01
5.131830340084065911e-01
5.131830340084065911e-01
5.112724493695071093e-01
5.112724493695071093e-01
5.112724493695071093e-01
5.296140619029422458e-01
5.296140619029422458e-01
5.135651509361864875e-01
5.135651509361864875e-01
5.135651509361864875e-01
5.322888803974016314e-01
5.322888803974016314e-01
5.307604126862820459e-01
5.307604126862820459e-01
5.307604126862820459e-01
5.250286587695834895e-01
5.250286587695834895e-01
5.212074894917845258e-01
5.212074894917845258e-01
5.212074894917845258e-01
5.357279327474206987e-01
5.357279327474206987e-01
5.315246465418418387e-01
5.315246465418418387e-01
5.315246465418418387e-01
5.296140619029422458e-01
5.296140619029422458e-01
5.418418035918991515e-01
5.418418035918991515e-01
5.418418035918991515e-01
5.299961788307222532e-01
5.299961788307222532e-01
5.341994650363011132e-01
5.341994650363011132e-01
5.341994650363011132e-01
5.307604126862820459e-01
5.307604126862820459e-01
5.261750095529231785e-01
5.261750095529231785e-01
5.261750095529231785e-01
5.376385173863201805e-01
5.376385173863201805e-01
5.273213603362628676e-01
5.273213603362628676e-01
5.273213603362628676e-01
5.311425296140619423e-01
5.311425296140619423e-01
5.288498280473824531e-01
5.288498280473824531e-01
5.288498280473824531e-01
5.311425296140619423e-01
5.311425296140619423e-01
5.341994650363011132e-01
5.341994650363011132e-01
5.341994650363011132e-01
5.280855941918226604e-01
5.280855941918226604e-01
5.223538402751242149e-01
5.223538402751242149e-01
5.223538402751242149e-01
5.380206343141000769e-01
5.380206343141000769e-01
5.284677111196025567e-01
5.284677111196025567e-01
5.284677111196025567e-01
5.212074894917845258e-01
5.212074894917845258e-01
5.250286587695834895e-01
5.250286587695834895e-01
5.250286587695834895e-01
5.311425296140619423e-01
5.311425296140619423e-01
5.189147879251050366e-01
5.189147879251050366e-01
5.189147879251050366e-01
5.116545662972870057e-01
5.116545662972870057e-01
5.135651509361864875e-01
5.135651509361864875e-01
5.135651509361864875e-01
4.998089415361100518e-01
4.998089415361100518e-01
5.017195261750095892e-01
5.017195261750095892e-01
5.017195261750095892e-01
5.139472678639663838e-01
5.139472678639663838e-01
5.097439816583874128e-01
5.097439816583874128e-01
5.097439816583874128e-01
5.024837600305693819e-01
5.024837600305693819e-01
4.910202521971723244e-01
4.910202521971723244e-01
4.910202521971723244e-01
4.906381352693924280e-01
4.906381352693924280e-01
4.898739014138326353e-01
4.898739014138326353e-01
4.898739014138326353e-01
4.864348490638135125e-01
4.864348490638135125e-01
4.772640427970958887e-01
4.772640427970958887e-01
4.772640427970958887e-01
4.722965227359571805e-01
4.722965227359571805e-01
4.669468857470385759e-01
4.669468857470385759e-01
4.547191440580817812e-01
4.547191440580817812e-01
4.547191440580817812e-01
4.615972487581199712e-01
4.615972487581199712e-01
4.566297286969812630e-01
4.566297286969812630e-01
4.566297286969812630e-01
4.493695070691631765e-01
4.493695070691631765e-01
4.390523500191058637e-01
4.390523500191058637e-01
4.390523500191058637e-01
4.337027130301872591e-01
4.337027130301872591e-01
4.371417653802063263e-01
4.371417653802063263e-01
4.371417653802063263e-01
4.356132976690867409e-01
4.356132976690867409e-01
4.191822697745510307e-01
4.191822697745510307e-01
4.191822697745510307e-01
4.268246083301490135e-01
4.268246083301490135e-01
4.061902942300343877e-01
4.061902942300343877e-01
4.061902942300343877e-01
4.123041650745127851e-01
4.123041650745127851e-01
4.054260603744745950e-01
4.054260603744745950e-01
4.054260603744745950e-01
3.844096293465800729e-01
3.844096293465800729e-01
3.947267863966373858e-01
3.947267863966373858e-01
3.947267863966373858e-01
3.706534199465036372e-01
3.706534199465036372e-01
3.851738632021398656e-01
3.851738632021398656e-01
3.851738632021398656e-01
3.599541459686664280e-01
3.599541459686664280e-01
3.733282384409629118e-01
3.733282384409629118e-01
3.733282384409629118e-01
3.504012227741689078e-01
3.504012227741689078e-01
3.481085212074894741e-01
3.481085212074894741e-01
3.481085212074894741e-01
3.565150936186473052e-01
3.565150936186473052e-01
3.358807795185326794e-01
3.358807795185326794e-01
3.358807795185326794e-01
3.286205578907145375e-01
3.286205578907145375e-01
3.274742071073748484e-01
3.274742071073748484e-01
3.274742071073748484e-01
3.362628964463125758e-01
3.362628964463125758e-01
3.183034008406572246e-01
3.183034008406572246e-01
3.183034008406572246e-01
3.198318685517768656e-01
3.198318685517768656e-01
3.190676346962170173e-01
3.190676346962170173e-01
3.190676346962170173e-01
3.045471914405808445e-01
3.045471914405808445e-01
3.030187237294612035e-01
3.030187237294612035e-01
3.030187237294612035e-01
2.991975544516621843e-01
2.991975544516621843e-01
2.976690867405425989e-01
2.976690867405425989e-01
2.976690867405425989e-01
2.961406190294230134e-01
2.961406190294230134e-01
2.957585021016431170e-01
2.957585021016431170e-01
2.957585021016431170e-01
2.820022927015666814e-01
2.820022927015666814e-01
2.800917080626671996e-01
2.800917080626671996e-01
2.800917080626671996e-01
2.755063049293083877e-01
2.755063049293083877e-01
2.904088651127245124e-01
2.904088651127245124e-01
2.904088651127245124e-01
2.896446312571647197e-01
2.896446312571647197e-01
2.739778372181887467e-01
2.739778372181887467e-01
2.739778372181887467e-01
2.797095911348873032e-01
2.797095911348873032e-01
2.812380588460068886e-01
2.812380588460068886e-01
2.812380588460068886e-01
2.766526557126480768e-01
2.766526557126480768e-01
2.728314864348490576e-01
2.728314864348490576e-01
2.728314864348490576e-01
2.632785632403515375e-01
2.632785632403515375e-01
2.628964463125716411e-01
2.628964463125716411e-01
2.628964463125716411e-01
2.537256400458540173e-01
2.537256400458540173e-01
2.617500955292319520e-01
2.617500955292319520e-01
2.617500955292319520e-01
2.586931601069927256e-01
2.586931601069927256e-01
2.663354986625907639e-01
2.663354986625907639e-01
2.663354986625907639e-01
2.468475353458158272e-01
2.468475353458158272e-01
2.434084829957967044e-01
2.434084829957967044e-01
2.434084829957967044e-01
2.422621322124570153e-01
2.422621322124570153e-01
2.491402369124952332e-01
2.491402369124952332e-01
2.491402369124952332e-01
2.346197936568590048e-01
2.346197936568590048e-01
2.529614061902942246e-01
2.529614061902942246e-01
2.529614061902942246e-01
2.506687046236148464e-01
2.506687046236148464e-01
2.384409629346579962e-01
2.384409629346579962e-01
2.384409629346579962e-01
2.426442491402369117e-01
2.426442491402369117e-01
2.307986243790599856e-01
2.307986243790599856e-01
2.307986243790599856e-01
2.399694306457776094e-01
2.399694306457776094e-01
2.311807413068398820e-01
2.311807413068398820e-01
2.311807413068398820e-01
2.414978983568972226e-01
2.414978983568972226e-01
2.277416889568207869e-01
2.277416889568207869e-01
2.277416889568207869e-01
2.227741688956820787e-01
2.227741688956820787e-01
2.292701566679404002e-01
2.292701566679404002e-01
2.292701566679404002e-01
2.414978983568972226e-01
2.414978983568972226e-01
2.265953381734810979e-01
2.265953381734810979e-01
2.265953381734810979e-01
2.285059228123805797e-01
2.285059228123805797e-01
2.357661444401986939e-01
2.357661444401986939e-01
2.357661444401986939e-01
2.296522735957202965e-01
2.296522735957202965e-01
2.254489873901413810e-01
2.254489873901413810e-01
2.254489873901413810e-01
2.307986243790599856e-01
2.307986243790599856e-01
2.094000764233855671e-01
2.094000764233855671e-01
2.094000764233855671e-01
2.158960641956438609e-01
2.158960641956438609e-01
2.143675964845242754e-01
2.143675964845242754e-01
2.143675964845242754e-01
2.216278181123423896e-01
2.216278181123423896e-01
2.204814673290026728e-01
2.204814673290026728e-01
2.204814673290026728e-01
2.147497134123041718e-01
2.147497134123041718e-01
2.147497134123041718e-01
2.147497134123041718e-01
2.044325563622468589e-01
2.044325563622468589e-01
2.044325563622468589e-01
2.120748949178448695e-01
2.120748949178448695e-01
2.048146732900267553e-01
2.048146732900267553e-01
2.048146732900267553e-01
2.009935040122277361e-01
2.009935040122277361e-01
2.025219717233473493e-01
2.025219717233473493e-01
2.025219717233473493e-01
1.929690485288498292e-01
1.929690485288498292e-01
2.040504394344669348e-01
2.040504394344669348e-01
2.040504394344669348e-01
1.960259839510890278e-01
1.960259839510890278e-01
1.918226977455101123e-01
1.918226977455101123e-01
1.918226977455101123e-01
1.837982422621322054e-01
1.837982422621322054e-01
2.055789071455865480e-01
2.055789071455865480e-01
2.055789071455865480e-01
1.887657623232709136e-01
1.887657623232709136e-01
1.994650363011081506e-01
1.994650363011081506e-01
1.994650363011081506e-01
1.837982422621322054e-01
1.837982422621322054e-01
1.837982422621322054e-01
1.837982422621322054e-01
1.837982422621322054e-01
1.769201375620939876e-01
1.769201375620939876e-01
1.711883836453954866e-01
1.711883836453954866e-01
1.711883836453954866e-01
1.734810852120748925e-01
1.734810852120748925e-01
1.734810852120748925e-01
1.734810852120748925e-01
1.734810852120748925e-01
1.837982422621322054e-01
1.837982422621322054e-01
1.719526175009552793e-01
1.719526175009552793e-01
1.719526175009552793e-01
1.845624761176920259e-01
1.845624761176920259e-01
1.776843714176538080e-01
1.776843714176538080e-01
1.776843714176538080e-01
1.788307222009934971e-01
1.788307222009934971e-01
1.730989682842949962e-01
1.730989682842949962e-01
1.730989682842949962e-01
1.669850974398165711e-01
1.669850974398165711e-01
1.803591899121131104e-01
1.803591899121131104e-01
1.803591899121131104e-01
1.700420328620557975e-01
1.700420328620557975e-01
1.566679403897592582e-01
1.566679403897592582e-01
1.566679403897592582e-01
1.734810852120748925e-01
1.734810852120748925e-01
1.490256018341612476e-01
1.490256018341612476e-01
1.490256018341612476e-01
1.524646541841803704e-01
1.524646541841803704e-01
1.635460450897974760e-01
1.635460450897974760e-01
1.635460450897974760e-01
1.452044325563622562e-01
1.452044325563622562e-01
1.478792510508215585e-01
1.478792510508215585e-01
1.478792510508215585e-01
1.482613679786014549e-01
1.482613679786014549e-01
1.532288880397401631e-01
1.532288880397401631e-01
1.532288880397401631e-01
1.383263278563240384e-01
1.383263278563240384e-01
1.421474971341230298e-01
1.421474971341230298e-01
1.421474971341230298e-01
1.394726786396637275e-01
1.394726786396637275e-01
1.528467711119602668e-01
1.528467711119602668e-01
1.528467711119602668e-01
1.474971341230416622e-01
1.474971341230416622e-01
1.410011463507833407e-01
1.410011463507833407e-01
1.410011463507833407e-01
1.360336262896446324e-01
1.360336262896446324e-01
1.306839893007260278e-01
1.306839893007260278e-01
1.306839893007260278e-01
1.387084447841039347e-01
1.387084447841039347e-01
1.471150171952617380e-01
1.471150171952617380e-01
1.471150171952617380e-01
1.348872755063049156e-01
1.348872755063049156e-01
1.333588077951853301e-01
1.333588077951853301e-01
1.333588077951853301e-01
1.253343523118074232e-01
1.253343523118074232e-01
1.394726786396637275e-01
1.394726786396637275e-01
1.394726786396637275e-01
1.348872755063049156e-01
1.348872755063049156e-01
1.207489491784486113e-01
1.207489491784486113e-01
1.207489491784486113e-01
1.463507833397019453e-01
1.463507833397019453e-01
1.268628200229270087e-01
1.268628200229270087e-01
1.268628200229270087e-01
1.283912877340466219e-01
1.283912877340466219e-01
1.425296140619029539e-01
1.425296140619029539e-01
1.425296140619029539e-01
1.333588077951853301e-01
1.333588077951853301e-01
1.253343523118074232e-01
1.253343523118074232e-01
1.253343523118074232e-01
1.325945739396255374e-01
1.325945739396255374e-01
1.356515093618647361e-01
1.356515093618647361e-01
1.356515093618647361e-01
1.287734046618265182e-01
1.287734046618265182e-01
1.268628200229270087e-01
1.268628200229270087e-01
1.268628200229270087e-01
1.196025983951089083e-01
1.196025983951089083e-01
1.119602598395108839e-01
1.119602598395108839e-01
1.119602598395108839e-01
1.245701184562476166e-01
1.245701184562476166e-01
1.280091708062667255e-01
1.280091708062667255e-01
1.280091708062667255e-01
1.238058846006878100e-01
1.238058846006878100e-01
1.318303400840657169e-01
1.318303400840657169e-01
1.318303400840657169e-01
1.184562476117692054e-01
1.184562476117692054e-01
1.142529614061902898e-01
1.142529614061902898e-01
1.142529614061902898e-01
1.215131830340084040e-01
1.215131830340084040e-01
1.069927397783721756e-01
1.069927397783721756e-01
1.069927397783721756e-01
1.222774168895682106e-01
1.222774168895682106e-01
1.123423767672907941e-01
1.123423767672907941e-01
1.123423767672907941e-01
1.127244936950706905e-01
1.127244936950706905e-01
1.092854413450515816e-01
1.092854413450515816e-01
1.092854413450515816e-01
1.100496752006113882e-01
1.100496752006113882e-01
1.092854413450515816e-01
1.092854413450515816e-01
1.092854413450515816e-01
1.138708444784103935e-01
1.138708444784103935e-01
1.012609858616736747e-01
1.012609858616736747e-01
1.012609858616736747e-01
1.176920137562093988e-01
1.176920137562093988e-01
1.027894535727932740e-01
1.027894535727932740e-01
1.004967520061138680e-01
1.004967520061138680e-01
1.004967520061138680e-01
1.157814291173099031e-01
1.157814291173099031e-01
1.123423767672907941e-01
1.123423767672907941e-01
1.123423767672907941e-01
1.119602598395108839e-01
1.119602598395108839e-01
1.016431027894535710e-01
1.016431027894535710e-01
1.016431027894535710e-01
9.514711501719526343e-02
9.514711501719526343e-02
9.973251815055407532e-02
9.973251815055407532e-02
9.973251815055407532e-02
1.024073366450133776e-01
1.024073366450133776e-01
1.089033244172716852e-01
1.089033244172716852e-01
1.089033244172716852e-01
9.935040122277416508e-02
9.935040122277416508e-02
1.069927397783721756e-01
1.069927397783721756e-01
1.069927397783721756e-01
9.591134887275505616e-02
9.591134887275505616e-02
1.089033244172716852e-01
1.089033244172716852e-01
1.089033244172716852e-01
9.896828429499426871e-02
9.896828429499426871e-02
1.043179212839128733e-01
1.043179212839128733e-01
1.043179212839128733e-01
1.092854413450515816e-01
1.092854413450515816e-01
8.979747802827665881e-02
8.979747802827665881e-02
8.979747802827665881e-02
9.973251815055407532e-02
9.973251815055407532e-02
9.476499808941536707e-02
9.476499808941536707e-02
9.476499808941536707e-02
9.361864730607566409e-02
9.361864730607566409e-02
1.096675582728314918e-01
1.096675582728314918e-01
1.096675582728314918e-01
9.400076423385556046e-02
9.400076423385556046e-02
9.400076423385556046e-02
9.400076423385556046e-02
9.400076423385556046e-02
1.035536874283530806e-01
1.035536874283530806e-01
9.017959495605655518e-02
9.017959495605655518e-02
9.017959495605655518e-02
9.170806266717615451e-02
9.170806266717615451e-02
1.077569736339319822e-01
1.077569736339319822e-01
1.077569736339319822e-01
9.629346580053496640e-02
9.629346580053496640e-02
1.073748567061520859e-01
1.073748567061520859e-01
1.073748567061520859e-01
1.085212074894917889e-01
1.085212074894917889e-01
