6.992739778372182580e-02
7.107374856706151489e-02
7.107374856706151489e-02
7.107374856706151489e-02
6.763469621704241985e-02
6.763469621704241985e-02
8.253725640045854461e-02
8.253725640045854461e-02
8.253725640045854461e-02
8.215513947267863437e-02
8.215513947267863437e-02
7.413068398930072744e-02
7.413068398930072744e-02
7.413068398930072744e-02
8.750477646159725287e-02
8.750477646159725287e-02
8.177302254489873801e-02
8.177302254489873801e-02
8.177302254489873801e-02
8.482995796713795056e-02
8.482995796713795056e-02
6.113870844478410532e-02
6.113870844478410532e-02
6.113870844478410532e-02
6.075659151700420202e-02
6.075659151700420202e-02
8.444784103935804032e-02
8.444784103935804032e-02
8.330149025601833734e-02
8.330149025601833734e-02
8.330149025601833734e-02
8.368360718379824759e-02
8.368360718379824759e-02
6.992739778372182580e-02
6.992739778372182580e-02
6.992739778372182580e-02
5.426060374474589443e-02
5.426060374474589443e-02
7.222009935040121786e-02
7.222009935040121786e-02
7.222009935040121786e-02
5.693542223920519674e-02
5.693542223920519674e-02
5.922812380588460268e-02
5.922812380588460268e-02
5.922812380588460268e-02
7.413068398930072744e-02
7.413068398930072744e-02
7.374856706152083108e-02
7.374856706152083108e-02
7.374856706152083108e-02
8.215513947267863437e-02
8.215513947267863437e-02
7.986243790599924230e-02
7.986243790599924230e-02
7.986243790599924230e-02
7.833397019487962909e-02
7.833397019487962909e-02
7.871608712265953933e-02
7.871608712265953933e-02
7.871608712265953933e-02
8.406572411157814395e-02
8.406572411157814395e-02
6.152082537256400169e-02
6.152082537256400169e-02
6.152082537256400169e-02
8.024455483377913867e-02
8.024455483377913867e-02
7.718761941153992612e-02
7.718761941153992612e-02
7.718761941153992612e-02
8.139090561711884164e-02
8.139090561711884164e-02
8.139090561711884164e-02
8.139090561711884164e-02
8.139090561711884164e-02
8.139090561711884164e-02
8.139090561711884164e-02
7.986243790599924230e-02
7.986243790599924230e-02
7.986243790599924230e-02
8.177302254489873801e-02
8.177302254489873801e-02
8.368360718379824759e-02
8.368360718379824759e-02
8.368360718379824759e-02
6.190294230034390499e-02
6.190294230034390499e-02
5.922812380588460268e-02
5.922812380588460268e-02
5.922812380588460268e-02
6.878104700038212282e-02
6.878104700038212282e-02
6.687046236148261324e-02
6.687046236148261324e-02
6.687046236148261324e-02
7.871608712265953933e-02
7.871608712265953933e-02
8.521207489491784692e-02
8.521207489491784692e-02
8.521207489491784692e-02
9.132594573939625815e-02
9.132594573939625815e-02
8.597630875047763965e-02
8.597630875047763965e-02
8.597630875047763965e-02
9.973251815055407532e-02
9.973251815055407532e-02
1.081390905617118786e-01
1.081390905617118786e-01
1.081390905617118786e-01
1.142529614061902898e-01
1.142529614061902898e-01
1.150171952617500964e-01
1.150171952617500964e-01
1.150171952617500964e-01
1.073748567061520859e-01
1.073748567061520859e-01
1.184562476117692054e-01
1.184562476117692054e-01
1.184562476117692054e-01
1.188383645395491017e-01
1.188383645395491017e-01
1.329766908674054338e-01
1.329766908674054338e-01
1.329766908674054338e-01
1.601069927397783810e-01
1.601069927397783810e-01
1.528467711119602668e-01
1.528467711119602668e-01
1.528467711119602668e-01
1.734810852120748925e-01
1.734810852120748925e-01
1.746274359954146094e-01
1.746274359954146094e-01
1.746274359954146094e-01
1.815055406954527994e-01
1.815055406954527994e-01
2.051967902178066516e-01
2.051967902178066516e-01
2.051967902178066516e-01
2.055789071455865480e-01
2.055789071455865480e-01
2.315628582346198061e-01
2.315628582346198061e-01
2.315628582346198061e-01
2.334734428735192879e-01
2.334734428735192879e-01
2.724493695070691612e-01
2.724493695070691612e-01
2.724493695070691612e-01
2.621322124570118484e-01
2.621322124570118484e-01
2.911730989682843052e-01
2.911730989682843052e-01
2.911730989682843052e-01
2.884982804738249751e-01
2.884982804738249751e-01
3.053114252961406372e-01
3.053114252961406372e-01
3.053114252961406372e-01
3.198318685517768656e-01
3.198318685517768656e-01
3.488727550630492669e-01
3.488727550630492669e-01
3.488727550630492669e-01
3.507833397019488042e-01
3.507833397019488042e-01
3.507833397019488042e-01
3.507833397019488042e-01
3.507833397019488042e-01
3.851738632021398656e-01
3.851738632021398656e-01
3.824990447076805355e-01
3.824990447076805355e-01
3.824990447076805355e-01
3.828811616354604319e-01
3.828811616354604319e-01
4.000764233855559904e-01
4.000764233855559904e-01
4.000764233855559904e-01
4.092472296522736142e-01
4.092472296522736142e-01
4.222392051967902016e-01
4.222392051967902016e-01
4.222392051967902016e-01
4.363775315246465336e-01
4.363775315246465336e-01
4.394344669468857600e-01
4.394344669468857600e-01
4.394344669468857600e-01
4.512800917080626584e-01
4.512800917080626584e-01
4.440198700802445719e-01
4.440198700802445719e-01
4.440198700802445719e-01
4.505158578525028656e-01
4.505158578525028656e-01
4.512800917080626584e-01
4.512800917080626584e-01
4.512800917080626584e-01
4.493695070691631765e-01
4.493695070691631765e-01
4.738249904470768215e-01
4.738249904470768215e-01
4.738249904470768215e-01
4.776461597248757851e-01
4.776461597248757851e-01
4.615972487581199712e-01
4.615972487581199712e-01
4.615972487581199712e-01
4.826136797860144934e-01
4.826136797860144934e-01
4.711501719526174914e-01
4.711501719526174914e-01
4.711501719526174914e-01
4.849063813526939271e-01
4.849063813526939271e-01
4.761176920137561996e-01
4.761176920137561996e-01
4.761176920137561996e-01
4.787925105082155297e-01
4.787925105082155297e-01
4.940771876194115508e-01
4.940771876194115508e-01
4.940771876194115508e-01
4.772640427970958887e-01
4.772640427970958887e-01
4.780282766526557370e-01
4.780282766526557370e-01
4.780282766526557370e-01
4.959877722583110327e-01
4.959877722583110327e-01
4.883454337027130499e-01
4.883454337027130499e-01
4.841421474971341343e-01
4.841421474971341343e-01
4.841421474971341343e-01
4.906381352693924280e-01
4.906381352693924280e-01
4.787925105082155297e-01
4.787925105082155297e-01
4.787925105082155297e-01
4.738249904470768215e-01
4.738249904470768215e-01
4.952235384027512399e-01
4.952235384027512399e-01
4.952235384027512399e-01
4.879633167749331535e-01
4.879633167749331535e-01
4.845242644249140307e-01
4.845242644249140307e-01
4.845242644249140307e-01
4.700038211692778023e-01
4.700038211692778023e-01
4.929308368360718617e-01
4.929308368360718617e-01
4.929308368360718617e-01
4.864348490638135125e-01
4.864348490638135125e-01
4.776461597248757851e-01
4.776461597248757851e-01
4.776461597248757851e-01
4.875811998471532016e-01
4.875811998471532016e-01
4.677111196025983686e-01
4.677111196025983686e-01
4.677111196025983686e-01
4.638899503247994049e-01
4.638899503247994049e-01
4.768819258693159924e-01
4.768819258693159924e-01
4.768819258693159924e-01
4.745892243026366142e-01
4.745892243026366142e-01
4.684753534581582168e-01
4.684753534581582168e-01
4.684753534581582168e-01
4.501337409247229693e-01
4.501337409247229693e-01
4.677111196025983686e-01
4.677111196025983686e-01
4.677111196025983686e-01
4.451662208635842610e-01
4.451662208635842610e-01
4.596866641192204894e-01
4.596866641192204894e-01
4.596866641192204894e-01
4.489873901413832802e-01
4.489873901413832802e-01
4.394344669468857600e-01
4.394344669468857600e-01
4.394344669468857600e-01
4.417271685135651382e-01
4.417271685135651382e-01
4.478410393580435356e-01
4.478410393580435356e-01
4.478410393580435356e-01
4.283530760412686544e-01
4.283530760412686544e-01
4.245319067634696353e-01
4.245319067634696353e-01
4.245319067634696353e-01
4.191822697745510307e-01
4.191822697745510307e-01
4.386702330913259673e-01
4.386702330913259673e-01
4.386702330913259673e-01
4.333205961024073627e-01
4.333205961024073627e-01
4.126862820022926814e-01
4.126862820022926814e-01
4.126862820022926814e-01
4.233855559801299462e-01
4.233855559801299462e-01
4.157432174245319079e-01
4.157432174245319079e-01
4.157432174245319079e-01
4.214749713412304089e-01
4.214749713412304089e-01
4.065724111578142841e-01
4.065724111578142841e-01
4.065724111578142841e-01
4.000764233855559904e-01
4.000764233855559904e-01
3.958731371799770749e-01
3.958731371799770749e-01
3.958731371799770749e-01
4.012227741688956795e-01
4.012227741688956795e-01
3.878486816965991402e-01
3.878486816965991402e-01
3.878486816965991402e-01
4.023691249522353686e-01
4.023691249522353686e-01
3.951089033244172821e-01
3.951089033244172821e-01
3.951089033244172821e-01
3.844096293465800729e-01
3.844096293465800729e-01
3.893771494077187811e-01
3.893771494077187811e-01
3.893771494077187811e-01
3.672143675964845144e-01
3.672143675964845144e-01
3.756209400076423455e-01
3.756209400076423455e-01
3.756209400076423455e-01
3.576614444019869943e-01
3.576614444019869943e-01
3.752388230798624491e-01
3.752388230798624491e-01
3.752388230798624491e-01
3.710355368742835336e-01
3.710355368742835336e-01
3.484906381352693705e-01
3.484906381352693705e-01
3.484906381352693705e-01
3.354986625907527831e-01
3.354986625907527831e-01
3.542223920519679270e-01
3.542223920519679270e-01
3.542223920519679270e-01
3.393198318685518022e-01
3.393198318685518022e-01
3.209782193351165547e-01
3.209782193351165547e-01
3.209782193351165547e-01
3.244172716851356775e-01
3.244172716851356775e-01
3.251815055406954702e-01
3.251815055406954702e-01
3.251815055406954702e-01
3.091325945739396008e-01
3.091325945739396008e-01
3.121895299961788273e-01
3.121895299961788273e-01
3.121895299961788273e-01
2.953763851738632207e-01
2.953763851738632207e-01
2.953763851738632207e-01
2.953763851738632207e-01
2.953763851738632207e-01
2.919373328238440979e-01
2.919373328238440979e-01
2.865876958349254933e-01
2.865876958349254933e-01
2.865876958349254933e-01
2.820022927015666814e-01
2.820022927015666814e-01
2.762705387848681804e-01
2.762705387848681804e-01
2.762705387848681804e-01
2.724493695070691612e-01
2.724493695070691612e-01
2.674818494459304530e-01
2.674818494459304530e-01
2.674818494459304530e-01
2.659533817348108675e-01
2.659533817348108675e-01
2.632785632403515375e-01
2.632785632403515375e-01
2.632785632403515375e-01
2.793274742071073513e-01
2.793274742071073513e-01
2.537256400458540173e-01
2.537256400458540173e-01
2.537256400458540173e-01
2.632785632403515375e-01
2.632785632403515375e-01
2.502865876958349500e-01
2.502865876958349500e-01
2.502865876958349500e-01
2.464654184180359309e-01
2.464654184180359309e-01
2.502865876958349500e-01
2.502865876958349500e-01
2.502865876958349500e-01
2.376767290790982035e-01
2.376767290790982035e-01
2.353840275124187975e-01
2.353840275124187975e-01
2.353840275124187975e-01
2.319449751623997025e-01
2.319449751623997025e-01
2.533435231180741209e-01
2.533435231180741209e-01
2.533435231180741209e-01
2.250668704623614846e-01
2.250668704623614846e-01
2.380588460068780998e-01
2.380588460068780998e-01
2.380588460068780998e-01
2.185708826901031632e-01
2.185708826901031632e-01
2.365303782957585144e-01
2.365303782957585144e-01
2.353840275124187975e-01
2.353840275124187975e-01
2.353840275124187975e-01
2.277416889568207869e-01
2.277416889568207869e-01
2.204814673290026728e-01
2.204814673290026728e-01
2.204814673290026728e-01
2.392051967902178167e-01
2.392051967902178167e-01
2.323270920901795988e-01
2.323270920901795988e-01
2.323270920901795988e-01
2.315628582346198061e-01
2.315628582346198061e-01
2.246847535345815883e-01
2.246847535345815883e-01
2.246847535345815883e-01
2.223920519679021823e-01
2.223920519679021823e-01
2.273595720290408906e-01
2.273595720290408906e-01
2.273595720290408906e-01
2.055789071455865480e-01
2.055789071455865480e-01
2.086358425678257467e-01
2.086358425678257467e-01
2.086358425678257467e-01
2.071073748567061612e-01
2.071073748567061612e-01
2.269774551012609942e-01
2.269774551012609942e-01
2.269774551012609942e-01
2.139854795567443513e-01
2.139854795567443513e-01
2.265953381734810979e-01
2.265953381734810979e-01
2.265953381734810979e-01
2.044325563622468589e-01
2.044325563622468589e-01
2.243026366068016919e-01
2.243026366068016919e-01
2.243026366068016919e-01
2.204814673290026728e-01
2.204814673290026728e-01
2.013756209400076325e-01
2.013756209400076325e-01
2.013756209400076325e-01
2.017577378677875566e-01
2.017577378677875566e-01
2.051967902178066516e-01
2.051967902178066516e-01
2.051967902178066516e-01
2.212457011845624655e-01
2.212457011845624655e-01
2.025219717233473493e-01
2.025219717233473493e-01
2.025219717233473493e-01
2.025219717233473493e-01
2.025219717233473493e-01
2.178066488345433704e-01
2.178066488345433704e-01
2.178066488345433704e-01
2.002292701566679434e-01
2.002292701566679434e-01
2.067252579289262648e-01
2.067252579289262648e-01
2.067252579289262648e-01
2.158960641956438609e-01
2.158960641956438609e-01
2.128391287734046622e-01
2.128391287734046622e-01
2.128391287734046622e-01
2.048146732900267553e-01
2.048146732900267553e-01
2.151318303400840681e-01
2.151318303400840681e-01
2.151318303400840681e-01
1.975544516622086411e-01
1.975544516622086411e-01
1.872372946121513282e-01
1.872372946121513282e-01
1.872372946121513282e-01
2.074894917844860576e-01
2.074894917844860576e-01
2.074894917844860576e-01
2.074894917844860576e-01
2.074894917844860576e-01
1.914405808177302160e-01
1.914405808177302160e-01
1.983186855177684338e-01
1.983186855177684338e-01
1.983186855177684338e-01
1.853267099732518186e-01
1.853267099732518186e-01
1.948796331677493388e-01
1.948796331677493388e-01
1.948796331677493388e-01
2.051967902178066516e-01
2.051967902178066516e-01
2.036683225066870384e-01
2.036683225066870384e-01
2.036683225066870384e-01
1.822697745510126199e-01
1.822697745510126199e-01
1.922048146732900364e-01
1.922048146732900364e-01
1.922048146732900364e-01
1.841803591899121018e-01
1.841803591899121018e-01
1.979365685899885374e-01
1.979365685899885374e-01
1.979365685899885374e-01
1.895299961788307341e-01
1.895299961788307341e-01
1.799770729843332140e-01
1.799770729843332140e-01
1.799770729843332140e-01
1.964081008788689242e-01
1.964081008788689242e-01
1.887657623232709136e-01
1.887657623232709136e-01
1.887657623232709136e-01
1.887657623232709136e-01
1.887657623232709136e-01
1.692777990064959770e-01
1.692777990064959770e-01
1.692777990064959770e-01
1.788307222009934971e-01
1.788307222009934971e-01
1.857088269010317150e-01
1.857088269010317150e-01
1.857088269010317150e-01
1.666029805120366747e-01
1.666029805120366747e-01
1.658387466564768820e-01
1.658387466564768820e-01
1.658387466564768820e-01
1.551394726786396727e-01
1.551394726786396727e-01
1.704241497898356938e-01
1.704241497898356938e-01
1.704241497898356938e-01
1.574321742453190787e-01
1.574321742453190787e-01
1.799770729843332140e-01
1.799770729843332140e-01
1.799770729843332140e-01
1.784486052732136008e-01
1.784486052732136008e-01
1.677493312953763915e-01
1.677493312953763915e-01
1.677493312953763915e-01
1.730989682842949962e-01
1.730989682842949962e-01
1.513183034008406536e-01
1.513183034008406536e-01
1.513183034008406536e-01
1.727168513565150998e-01
1.727168513565150998e-01
1.708062667176155902e-01
1.708062667176155902e-01
1.708062667176155902e-01
1.471150171952617380e-01
1.471150171952617380e-01
1.444401987008024357e-01
1.444401987008024357e-01
1.444401987008024357e-01
1.631639281620175796e-01
1.631639281620175796e-01
1.410011463507833407e-01
1.410011463507833407e-01
1.410011463507833407e-01
1.547573557508597764e-01
1.547573557508597764e-01
1.597248758119984846e-01
1.597248758119984846e-01
1.597248758119984846e-01
1.581964081008788714e-01
1.581964081008788714e-01
1.581964081008788714e-01
1.581964081008788714e-01
1.581964081008788714e-01
1.356515093618647361e-01
1.356515093618647361e-01
1.318303400840657169e-01
1.318303400840657169e-01
1.318303400840657169e-01
1.474971341230416622e-01
1.474971341230416622e-01
1.517004203286205499e-01
1.517004203286205499e-01
1.517004203286205499e-01
1.509361864730607572e-01
1.509361864730607572e-01
1.463507833397019453e-01
1.463507833397019453e-01
1.463507833397019453e-01
1.467329002674818417e-01
1.467329002674818417e-01
1.238058846006878100e-01
1.238058846006878100e-01
1.238058846006878100e-01
1.234237676729079136e-01
1.234237676729079136e-01
1.459686664119220489e-01
1.459686664119220489e-01
1.196025983951089083e-01
1.196025983951089083e-01
1.196025983951089083e-01
1.207489491784486113e-01
1.207489491784486113e-01
1.352693924340848397e-01
1.352693924340848397e-01
1.352693924340848397e-01
1.341230416507451229e-01
1.341230416507451229e-01
1.169277799006495921e-01
1.169277799006495921e-01
1.169277799006495921e-01
1.180741306839892951e-01
1.180741306839892951e-01
1.306839893007260278e-01
1.306839893007260278e-01
1.306839893007260278e-01
1.257164692395873196e-01
1.257164692395873196e-01
1.146350783339702001e-01
1.146350783339702001e-01
1.146350783339702001e-01
1.348872755063049156e-01
1.348872755063049156e-01
1.264807030951471123e-01
1.264807030951471123e-01
1.264807030951471123e-01
1.089033244172716852e-01
1.089033244172716852e-01
1.318303400840657169e-01
1.318303400840657169e-01
1.318303400840657169e-01
1.169277799006495921e-01
1.169277799006495921e-01
1.062285059228123829e-01
1.062285059228123829e-01
1.062285059228123829e-01
1.058463889950324865e-01
1.058463889950324865e-01
1.058463889950324865e-01
1.058463889950324865e-01
1.058463889950324865e-01
1.306839893007260278e-01
1.306839893007260278e-01
1.264807030951471123e-01
1.264807030951471123e-01
1.264807030951471123e-01
1.287734046618265182e-01
1.287734046618265182e-01
9.973251815055407532e-02
9.973251815055407532e-02
9.973251815055407532e-02
1.207489491784486113e-01
1.207489491784486113e-01
1.257164692395873196e-01
1.257164692395873196e-01
1.257164692395873196e-01
1.058463889950324865e-01
1.058463889950324865e-01
1.226595338173481070e-01
1.226595338173481070e-01
1.226595338173481070e-01
1.188383645395491017e-01
1.188383645395491017e-01
1.230416507451280034e-01
1.230416507451280034e-01
1.230416507451280034e-01
1.161635460450897994e-01
1.161635460450897994e-01
1.047000382116927836e-01
1.047000382116927836e-01
1.047000382116927836e-01
1.027894535727932740e-01
1.027894535727932740e-01
1.184562476117692054e-01
1.184562476117692054e-01
1.184562476117692054e-01
1.027894535727932740e-01
1.027894535727932740e-01
1.196025983951089083e-01
1.196025983951089083e-01
1.196025983951089083e-01
1.218952999617883004e-01
1.218952999617883004e-01
1.115781429117309875e-01
1.115781429117309875e-01
1.115781429117309875e-01
1.165456629728696958e-01
1.165456629728696958e-01
1.004967520061138680e-01
1.004967520061138680e-01
1.004967520061138680e-01
1.111960259839510912e-01
1.111960259839510912e-01
1.066106228505922793e-01
1.066106228505922793e-01
1.066106228505922793e-01
1.165456629728696958e-01
1.165456629728696958e-01
1.180741306839892951e-01
1.180741306839892951e-01
1.180741306839892951e-01
1.203668322506687011e-01
1.203668322506687011e-01
9.782193351165456574e-02
9.782193351165456574e-02
9.782193351165456574e-02
1.138708444784103935e-01
1.138708444784103935e-01
1.020252197172334674e-01
1.020252197172334674e-01
1.020252197172334674e-01
1.131066106228505869e-01
1.131066106228505869e-01
9.209017959495605088e-02
9.209017959495605088e-02
9.209017959495605088e-02
9.132594573939625815e-02
9.132594573939625815e-02
1.035536874283530806e-01
1.035536874283530806e-01
1.035536874283530806e-01
8.635842567825754990e-02
8.635842567825754990e-02
1.043179212839128733e-01
1.043179212839128733e-01
1.043179212839128733e-01
9.056171188383645154e-02
9.056171188383645154e-02
1.069927397783721756e-01
1.069927397783721756e-01
1.069927397783721756e-01
1.092854413450515816e-01
1.092854413450515816e-01
8.597630875047763965e-02
8.597630875047763965e-02
8.597630875047763965e-02
1.077569736339319822e-01
1.077569736339319822e-01
8.903324417271685220e-02
8.903324417271685220e-02
8.903324417271685220e-02
9.361864730607566409e-02
9.361864730607566409e-02
9.973251815055407532e-02
9.973251815055407532e-02
9.973251815055407532e-02
1.092854413450515816e-01
1.092854413450515816e-01
1.043179212839128733e-01
1.043179212839128733e-01
1.043179212839128733e-01
1.001146350783339717e-01
1.001146350783339717e-01
8.406572411157814395e-02
8.406572411157814395e-02
8.406572411157814395e-02
8.979747802827665881e-02
8.979747802827665881e-02
9.247229652273596112e-02
9.247229652273596112e-02
9.247229652273596112e-02
8.100878868933893140e-02
8.100878868933893140e-02
1.004967520061138680e-01
1.004967520061138680e-01
1.004967520061138680e-01
9.361864730607566409e-02
9.361864730607566409e-02
9.056171188383645154e-02
9.056171188383645154e-02
9.056171188383645154e-02
8.559419182269774329e-02
8.559419182269774329e-02
8.444784103935804032e-02
8.444784103935804032e-02
8.444784103935804032e-02
7.795185326709973272e-02
7.795185326709973272e-02
9.705769965609475913e-02
9.705769965609475913e-02
9.705769965609475913e-02
8.444784103935804032e-02
8.444784103935804032e-02
9.361864730607566409e-02
9.361864730607566409e-02
9.361864730607566409e-02
9.782193351165456574e-02
9.782193351165456574e-02
7.374856706152083108e-02
7.374856706152083108e-02
7.374856706152083108e-02
1.008788689338937783e-01
1.008788689338937783e-01
7.527703477264043042e-02
7.527703477264043042e-02
7.527703477264043042e-02
7.909820405043943570e-02
7.909820405043943570e-02
9.973251815055407532e-02
9.973251815055407532e-02
7.795185326709973272e-02
7.795185326709973272e-02
7.795185326709973272e-02
7.604126862820022315e-02
7.604126862820022315e-02
8.865112724493695584e-02
8.865112724493695584e-02
8.865112724493695584e-02
9.705769965609475913e-02
9.705769965609475913e-02
7.413068398930072744e-02
7.413068398930072744e-02
7.413068398930072744e-02
7.527703477264043042e-02
7.527703477264043042e-02
8.253725640045854461e-02
8.253725640045854461e-02
8.253725640045854461e-02
7.795185326709973272e-02
7.795185326709973272e-02
7.451280091708062381e-02
7.451280091708062381e-02
7.451280091708062381e-02
1.020252197172334674e-01
1.020252197172334674e-01
9.285441345051585749e-02
9.285441345051585749e-02
9.285441345051585749e-02
8.750477646159725287e-02
8.750477646159725287e-02
8.979747802827665881e-02
8.979747802827665881e-02
8.979747802827665881e-02
1.050821551394726799e-01
1.050821551394726799e-01
9.017959495605655518e-02
9.017959495605655518e-02
9.017959495605655518e-02
1.047000382116927836e-01
1.047000382116927836e-01
9.782193351165456574e-02
9.782193351165456574e-02
9.782193351165456574e-02
1.238058846006878100e-01
1.238058846006878100e-01
1.176920137562093988e-01
1.176920137562093988e-01
1.176920137562093988e-01
1.173098968284295024e-01
1.173098968284295024e-01
1.398547955674436516e-01
1.398547955674436516e-01
1.398547955674436516e-01
1.322124570118456133e-01
1.322124570118456133e-01
1.620175773786778628e-01
1.620175773786778628e-01
1.620175773786778628e-01
1.753916698509744021e-01
1.753916698509744021e-01
1.730989682842949962e-01
1.730989682842949962e-01
1.730989682842949962e-01
1.964081008788689242e-01
1.964081008788689242e-01
1.849445930454719222e-01
1.849445930454719222e-01
1.849445930454719222e-01
2.139854795567443513e-01
2.139854795567443513e-01
2.189529996178830595e-01
2.189529996178830595e-01
2.189529996178830595e-01
2.384409629346579962e-01
2.384409629346579962e-01
2.277416889568207869e-01
2.277416889568207869e-01
2.277416889568207869e-01
2.422621322124570153e-01
2.422621322124570153e-01
2.766526557126480768e-01
2.766526557126480768e-01
2.766526557126480768e-01
2.865876958349254933e-01
2.865876958349254933e-01
2.774168895682078695e-01
2.774168895682078695e-01
2.774168895682078695e-01
2.938479174627435797e-01
2.938479174627435797e-01
3.037829575850209962e-01
3.037829575850209962e-01
3.037829575850209962e-01
3.278563240351547448e-01
3.278563240351547448e-01
3.263278563240351593e-01
3.263278563240351593e-01
3.263278563240351593e-01
3.305311425296140748e-01
3.305311425296140748e-01
3.576614444019869943e-01
3.576614444019869943e-01
3.576614444019869943e-01
3.626289644631257025e-01
3.626289644631257025e-01
3.824990447076805355e-01
3.824990447076805355e-01
3.824990447076805355e-01
3.702713030187237409e-01
3.702713030187237409e-01
3.886129155521589329e-01
3.886129155521589329e-01
3.886129155521589329e-01
4.004585403133358867e-01
4.004585403133358867e-01
3.924340848299579521e-01
3.924340848299579521e-01
3.924340848299579521e-01
3.962552541077569712e-01
3.962552541077569712e-01
4.249140236912495316e-01
4.249140236912495316e-01
4.249140236912495316e-01
4.252961406190294280e-01
4.252961406190294280e-01
4.123041650745127851e-01
4.123041650745127851e-01
4.123041650745127851e-01
4.241497898356897389e-01
4.241497898356897389e-01
4.123041650745127851e-01
4.123041650745127851e-01
4.123041650745127851e-01
4.298815437523882399e-01
4.298815437523882399e-01
4.413450515857852419e-01
4.413450515857852419e-01
4.413450515857852419e-01
4.272067252579289098e-01
4.272067252579289098e-01
4.344669468857470518e-01
4.344669468857470518e-01
4.344669468857470518e-01
4.474589224302636392e-01
4.474589224302636392e-01
4.367596484524264300e-01
4.367596484524264300e-01
4.367596484524264300e-01
4.314100114635078254e-01
4.314100114635078254e-01
4.405808177302254491e-01
4.405808177302254491e-01
4.405808177302254491e-01
4.302636606801681363e-01
4.302636606801681363e-01
4.275888421857088062e-01
4.275888421857088062e-01
4.275888421857088062e-01
4.268246083301490135e-01
4.268246083301490135e-01
4.386702330913259673e-01
4.386702330913259673e-01
4.386702330913259673e-01
4.321742453190676181e-01
4.321742453190676181e-01
4.287351929690485508e-01
4.287351929690485508e-01
4.287351929690485508e-01
4.283530760412686544e-01
4.283530760412686544e-01
4.165074512800917006e-01
4.165074512800917006e-01
4.165074512800917006e-01
4.210928544134505125e-01
4.210928544134505125e-01
4.363775315246465336e-01
4.363775315246465336e-01
4.363775315246465336e-01
4.233855559801299462e-01
4.233855559801299462e-01
4.245319067634696353e-01
4.245319067634696353e-01
4.245319067634696353e-01
4.226213221245700979e-01
4.226213221245700979e-01
4.069545280855941805e-01
4.069545280855941805e-01
4.069545280855941805e-01
4.069545280855941805e-01
4.069545280855941805e-01
4.226213221245700979e-01
4.226213221245700979e-01
4.226213221245700979e-01
3.951089033244172821e-01
3.951089033244172821e-01
3.931983186855177448e-01
3.931983186855177448e-01
3.931983186855177448e-01
3.935804356132976967e-01
3.935804356132976967e-01
3.916698509743981593e-01
3.916698509743981593e-01
3.878486816965991402e-01
3.878486816965991402e-01
3.878486816965991402e-01
3.813526939243408465e-01
3.813526939243408465e-01
3.786778754298815164e-01
3.786778754298815164e-01
3.786778754298815164e-01
3.771494077187619309e-01
3.771494077187619309e-01
3.771494077187619309e-01
3.771494077187619309e-01
3.771494077187619309e-01
3.844096293465800729e-01
3.844096293465800729e-01
3.649216660298051362e-01
3.649216660298051362e-01
3.649216660298051362e-01
3.653037829575850326e-01
3.653037829575850326e-01
3.779136415743217237e-01
3.779136415743217237e-01
3.779136415743217237e-01
3.553687428353076161e-01
3.553687428353076161e-01
3.622468475353458062e-01
3.622468475353458062e-01
3.622468475353458062e-01
3.622468475353458062e-01
3.622468475353458062e-01
3.668322506687046181e-01
3.668322506687046181e-01
3.668322506687046181e-01
3.641574321742453435e-01
3.641574321742453435e-01
3.645395491020252399e-01
3.645395491020252399e-01
3.645395491020252399e-01
3.374092472296522649e-01
3.374092472296522649e-01
3.458158196408100959e-01
3.458158196408100959e-01
3.458158196408100959e-01
3.293847917462743857e-01
3.293847917462743857e-01
3.419946503630110768e-01
3.419946503630110768e-01
3.419946503630110768e-01
3.419946503630110768e-01
3.419946503630110768e-01
3.366450133740924722e-01
3.366450133740924722e-01
3.366450133740924722e-01
3.148643484906381573e-01
3.148643484906381573e-01
3.309132594573939712e-01
3.309132594573939712e-01
3.309132594573939712e-01
3.076041268628200154e-01
3.076041268628200154e-01
3.030187237294612035e-01
3.030187237294612035e-01
3.030187237294612035e-01
3.034008406572410999e-01
3.034008406572410999e-01
3.125716469239587236e-01
3.125716469239587236e-01
3.125716469239587236e-01
3.102789453572793454e-01
3.102789453572793454e-01
3.037829575850209962e-01
3.037829575850209962e-01
3.037829575850209962e-01
3.056935422239205336e-01
3.056935422239205336e-01
2.907909820405044088e-01
2.907909820405044088e-01
2.907909820405044088e-01
2.816201757737867850e-01
2.816201757737867850e-01
2.644249140236912266e-01
2.644249140236912266e-01
2.644249140236912266e-01
2.564004585403133474e-01
2.564004585403133474e-01
2.735957202904088503e-01
2.735957202904088503e-01
2.735957202904088503e-01
2.510508215513947428e-01
2.510508215513947428e-01
2.529614061902942246e-01
2.529614061902942246e-01
2.529614061902942246e-01
2.541077569736339137e-01
2.541077569736339137e-01
2.476117692013756200e-01
2.476117692013756200e-01
2.476117692013756200e-01
2.495223538402751295e-01
2.495223538402751295e-01
2.281238058846006833e-01
2.281238058846006833e-01
2.281238058846006833e-01
2.441727168513565249e-01
2.441727168513565249e-01
2.418800152846771190e-01
2.418800152846771190e-01
2.418800152846771190e-01
2.292701566679404002e-01
2.292701566679404002e-01
2.407336645013374021e-01
2.407336645013374021e-01
2.407336645013374021e-01
2.315628582346198061e-01
2.315628582346198061e-01
2.082537256400458503e-01
2.082537256400458503e-01
2.082537256400458503e-01
2.086358425678257467e-01
2.086358425678257467e-01
2.124570118456247658e-01
2.124570118456247658e-01
2.124570118456247658e-01
1.960259839510890278e-01
1.960259839510890278e-01
2.220099350401222860e-01
2.220099350401222860e-01
2.220099350401222860e-01
2.155139472678639645e-01
2.155139472678639645e-01
1.925869316010699328e-01
1.925869316010699328e-01
1.925869316010699328e-01
2.063431410011463407e-01
2.063431410011463407e-01
1.933511654566297255e-01
1.933511654566297255e-01
1.933511654566297255e-01
1.860909438288116113e-01
1.860909438288116113e-01
2.063431410011463407e-01
2.063431410011463407e-01
2.063431410011463407e-01
1.834161253343523090e-01
1.834161253343523090e-01
1.925869316010699328e-01
1.925869316010699328e-01
1.925869316010699328e-01
2.036683225066870384e-01
2.036683225066870384e-01
1.929690485288498292e-01
1.929690485288498292e-01
1.929690485288498292e-01
1.773022544898739117e-01
1.773022544898739117e-01
1.807413068398930067e-01
1.807413068398930067e-01
1.807413068398930067e-01
1.872372946121513282e-01
1.872372946121513282e-01
1.925869316010699328e-01
1.925869316010699328e-01
1.925869316010699328e-01
1.708062667176155902e-01
1.708062667176155902e-01
1.902942300343905269e-01
1.902942300343905269e-01
1.902942300343905269e-01
1.692777990064959770e-01
1.692777990064959770e-01
1.845624761176920259e-01
1.845624761176920259e-01
1.845624761176920259e-01
1.761559037065341948e-01
1.761559037065341948e-01
1.830340084065724127e-01
1.830340084065724127e-01
1.830340084065724127e-01
1.868551776843714041e-01
1.868551776843714041e-01
1.746274359954146094e-01
1.746274359954146094e-01
1.746274359954146094e-01
1.952617500955292351e-01
1.952617500955292351e-01
1.857088269010317150e-01
1.857088269010317150e-01
1.857088269010317150e-01
1.933511654566297255e-01
1.933511654566297255e-01
1.795949560565533176e-01
1.795949560565533176e-01
1.795949560565533176e-01
1.872372946121513282e-01
1.872372946121513282e-01
1.834161253343523090e-01
1.834161253343523090e-01
1.834161253343523090e-01
1.761559037065341948e-01
1.761559037065341948e-01
1.872372946121513282e-01
1.872372946121513282e-01
1.872372946121513282e-01
1.700420328620557975e-01
1.700420328620557975e-01
1.807413068398930067e-01
1.807413068398930067e-01
1.811234237676729031e-01
1.811234237676729031e-01
1.811234237676729031e-01
1.753916698509744021e-01
1.753916698509744021e-01
1.803591899121131104e-01
1.803591899121131104e-01
1.803591899121131104e-01
1.727168513565150998e-01
1.727168513565150998e-01
1.849445930454719222e-01
1.849445930454719222e-01
1.849445930454719222e-01
1.692777990064959770e-01
1.692777990064959770e-01
1.696599159342759011e-01
1.696599159342759011e-01
1.696599159342759011e-01
1.792128391287733935e-01
1.792128391287733935e-01
1.681314482231562879e-01
1.681314482231562879e-01
1.681314482231562879e-01
1.696599159342759011e-01
1.696599159342759011e-01
1.654566297286969856e-01
1.654566297286969856e-01
1.654566297286969856e-01
1.750095529231945057e-01
1.750095529231945057e-01
1.845624761176920259e-01
1.845624761176920259e-01
1.845624761176920259e-01
1.788307222009934971e-01
1.788307222009934971e-01
1.738632021398547889e-01
1.738632021398547889e-01
1.738632021398547889e-01
1.788307222009934971e-01
1.788307222009934971e-01
1.547573557508597764e-01
1.547573557508597764e-01
1.547573557508597764e-01
1.746274359954146094e-01
1.746274359954146094e-01
1.753916698509744021e-01
1.753916698509744021e-01
1.753916698509744021e-01
1.528467711119602668e-01
1.528467711119602668e-01
1.520825372564004463e-01
1.520825372564004463e-01
1.520825372564004463e-01
1.574321742453190787e-01
1.574321742453190787e-01
1.639281620175773724e-01
1.639281620175773724e-01
1.639281620175773724e-01
1.551394726786396727e-01
1.551394726786396727e-01
1.608712265953381737e-01
1.608712265953381737e-01
1.608712265953381737e-01
1.650745128009170892e-01
1.650745128009170892e-01
1.440580817730225394e-01
1.440580817730225394e-01
1.440580817730225394e-01
1.551394726786396727e-01
1.551394726786396727e-01
1.631639281620175796e-01
1.631639281620175796e-01
1.631639281620175796e-01
1.623996943064577869e-01
1.623996943064577869e-01
1.562858234619793618e-01
1.562858234619793618e-01
1.562858234619793618e-01
1.635460450897974760e-01
1.635460450897974760e-01
1.578142911730989750e-01
1.578142911730989750e-01
1.578142911730989750e-01
1.425296140619029539e-01
1.425296140619029539e-01
1.379442109285441420e-01
1.379442109285441420e-01
1.379442109285441420e-01
1.574321742453190787e-01
1.574321742453190787e-01
1.436759648452426430e-01
1.436759648452426430e-01
1.436759648452426430e-01
1.325945739396255374e-01
1.325945739396255374e-01
1.291555215896064146e-01
1.291555215896064146e-01
1.291555215896064146e-01
1.455865494841421526e-01
1.455865494841421526e-01
1.459686664119220489e-01
1.459686664119220489e-01
1.459686664119220489e-01
1.455865494841421526e-01
1.455865494841421526e-01
1.394726786396637275e-01
1.394726786396637275e-01
1.394726786396637275e-01
1.184562476117692054e-01
1.184562476117692054e-01
1.176920137562093988e-01
1.176920137562093988e-01
1.176920137562093988e-01
1.142529614061902898e-01
1.142529614061902898e-01
1.299197554451662073e-01
1.299197554451662073e-01
1.299197554451662073e-01
1.367978601452044252e-01
1.367978601452044252e-01
1.337409247229652265e-01
1.337409247229652265e-01
1.337409247229652265e-01
1.142529614061902898e-01
1.142529614061902898e-01
1.104317921283912846e-01
1.104317921283912846e-01
1.104317921283912846e-01
1.345051585785250192e-01
1.345051585785250192e-01
1.268628200229270087e-01
1.268628200229270087e-01
1.268628200229270087e-01
1.264807030951471123e-01
1.264807030951471123e-01
1.280091708062667255e-01
1.280091708062667255e-01
1.280091708062667255e-01
1.199847153228888047e-01
1.199847153228888047e-01
1.199847153228888047e-01
1.199847153228888047e-01
1.199847153228888047e-01
1.031715705005731704e-01
1.031715705005731704e-01
1.199847153228888047e-01
1.199847153228888047e-01
1.199847153228888047e-01
1.016431027894535710e-01
1.016431027894535710e-01
9.973251815055407532e-02
9.973251815055407532e-02
9.973251815055407532e-02
1.207489491784486113e-01
1.207489491784486113e-01
1.001146350783339717e-01
1.001146350783339717e-01
1.001146350783339717e-01
1.096675582728314918e-01
1.096675582728314918e-01
1.215131830340084040e-01
1.215131830340084040e-01
1.215131830340084040e-01
9.629346580053496640e-02
9.629346580053496640e-02
9.323653037829575385e-02
9.323653037829575385e-02
9.323653037829575385e-02
9.743981658387466938e-02
9.743981658387466938e-02
9.514711501719526343e-02
9.514711501719526343e-02
9.514711501719526343e-02
1.150171952617500964e-01
1.150171952617500964e-01
1.058463889950324865e-01
1.058463889950324865e-01
1.058463889950324865e-01
9.629346580053496640e-02
9.629346580053496640e-02
8.865112724493695584e-02
8.865112724493695584e-02
8.865112724493695584e-02
1.169277799006495921e-01
1.169277799006495921e-01
1.066106228505922793e-01
1.066106228505922793e-01
1.066106228505922793e-01
1.066106228505922793e-01
1.066106228505922793e-01
9.820405043943446211e-02
9.820405043943446211e-02
9.820405043943446211e-02
1.119602598395108839e-01
1.119602598395108839e-01
1.100496752006113882e-01
1.100496752006113882e-01
1.100496752006113882e-01
8.635842567825754990e-02
8.635842567825754990e-02
8.253725640045854461e-02
8.253725640045854461e-02
1.031715705005731704e-01
1.031715705005731704e-01
1.031715705005731704e-01
9.438288116163545682e-02
9.438288116163545682e-02
9.820405043943446211e-02
9.820405043943446211e-02
9.820405043943446211e-02
8.635842567825754990e-02
8.635842567825754990e-02
8.139090561711884164e-02
8.139090561711884164e-02
8.139090561711884164e-02
1.039358043561329770e-01
1.039358043561329770e-01
8.597630875047763965e-02
8.597630875047763965e-02
8.597630875047763965e-02
8.215513947267863437e-02
8.215513947267863437e-02
8.903324417271685220e-02
8.903324417271685220e-02
8.903324417271685220e-02
8.100878868933893140e-02
8.100878868933893140e-02
8.482995796713795056e-02
8.482995796713795056e-02
8.482995796713795056e-02
7.527703477264043042e-02
7.527703477264043042e-02
8.330149025601833734e-02
8.330149025601833734e-02
8.330149025601833734e-02
8.444784103935804032e-02
8.444784103935804032e-02
9.552923194497515980e-02
9.552923194497515980e-02
9.552923194497515980e-02
7.527703477264043042e-02
7.527703477264043042e-02
7.030951471150172216e-02
7.030951471150172216e-02
7.030951471150172216e-02
8.139090561711884164e-02
8.139090561711884164e-02
7.222009935040121786e-02
7.222009935040121786e-02
7.222009935040121786e-02
7.145586549484142513e-02
7.145586549484142513e-02
7.183798242262132150e-02
7.183798242262132150e-02
7.183798242262132150e-02
7.298433320596102447e-02
7.298433320596102447e-02
8.826901031715704560e-02
8.826901031715704560e-02
8.826901031715704560e-02
8.559419182269774329e-02
8.559419182269774329e-02
8.979747802827665881e-02
8.979747802827665881e-02
8.979747802827665881e-02
6.495987772258310367e-02
6.495987772258310367e-02
6.725257928926250961e-02
6.725257928926250961e-02
6.725257928926250961e-02
6.037447458922430565e-02
6.037447458922430565e-02
8.635842567825754990e-02
8.635842567825754990e-02
8.635842567825754990e-02
7.756973633931983636e-02
7.756973633931983636e-02
8.330149025601833734e-02
8.330149025601833734e-02
8.330149025601833734e-02
7.489491784486053405e-02
7.489491784486053405e-02
6.152082537256400169e-02
6.152082537256400169e-02
6.152082537256400169e-02
8.139090561711884164e-02
8.139090561711884164e-02
5.693542223920519674e-02
5.693542223920519674e-02
5.693542223920519674e-02
7.336645013374092084e-02
7.336645013374092084e-02
6.687046236148261324e-02
6.687046236148261324e-02
6.687046236148261324e-02
7.298433320596102447e-02
7.298433320596102447e-02
6.534199465036301391e-02
6.534199465036301391e-02
6.534199465036301391e-02
5.808177302254489971e-02
5.808177302254489971e-02
5.082155139472678551e-02
5.082155139472678551e-02
5.082155139472678551e-02
7.107374856706151489e-02
7.107374856706151489e-02
6.801681314482231622e-02
6.801681314482231622e-02
6.801681314482231622e-02
4.929308368360718617e-02
4.929308368360718617e-02
5.693542223920519674e-02
5.693542223920519674e-02
5.693542223920519674e-02
7.069163163928161853e-02
7.069163163928161853e-02
4.585403133358807726e-02
4.585403133358807726e-02
4.585403133358807726e-02
5.693542223920519674e-02
5.693542223920519674e-02
6.878104700038212282e-02
6.878104700038212282e-02
6.878104700038212282e-02
6.343141001146350433e-02
6.343141001146350433e-02
4.852884982804737957e-02
4.852884982804737957e-02
4.852884982804737957e-02
5.426060374474589443e-02
5.426060374474589443e-02
6.419564386702331094e-02
6.419564386702331094e-02
6.419564386702331094e-02
4.738249904470768353e-02
4.738249904470768353e-02
5.731753916698510004e-02
5.731753916698510004e-02
5.731753916698510004e-02
3.897592663354986636e-02
3.897592663354986636e-02
4.394344669468857462e-02
4.394344669468857462e-02
4.394344669468857462e-02
6.419564386702331094e-02
6.419564386702331094e-02
5.235001910584639179e-02
5.235001910584639179e-02
5.235001910584639179e-02
3.859380970576996306e-02
3.859380970576996306e-02
6.152082537256400169e-02
6.152082537256400169e-02
6.152082537256400169e-02
3.782957585021016339e-02
3.782957585021016339e-02
6.075659151700420202e-02
6.075659151700420202e-02
6.075659151700420202e-02
3.591899121131066075e-02
3.591899121131066075e-02
4.432556362246847792e-02
4.432556362246847792e-02
4.432556362246847792e-02
5.235001910584639179e-02
5.235001910584639179e-02
6.113870844478410532e-02
6.113870844478410532e-02
6.113870844478410532e-02
6.037447458922430565e-02
6.037447458922430565e-02
4.279709591134887164e-02
4.279709591134887164e-02
4.279709591134887164e-02
5.273213603362628815e-02
5.273213603362628815e-02
6.534199465036301391e-02
6.534199465036301391e-02
6.534199465036301391e-02
5.922812380588460268e-02
5.922812380588460268e-02
4.585403133358807726e-02
4.585403133358807726e-02
4.585403133358807726e-02
5.158578525028658518e-02
5.158578525028658518e-02
7.107374856706151489e-02
7.107374856706151489e-02
7.107374856706151489e-02
7.833397019487962909e-02
7.833397019487962909e-02
8.368360718379824759e-02
8.368360718379824759e-02
8.368360718379824759e-02
9.132594573939625815e-02
9.132594573939625815e-02
8.712265953381734263e-02
8.712265953381734263e-02
8.712265953381734263e-02
9.629346580053496640e-02
9.629346580053496640e-02
1.230416507451280034e-01
1.230416507451280034e-01
1.253343523118074232e-01
1.253343523118074232e-01
1.253343523118074232e-01
1.184562476117692054e-01
1.184562476117692054e-01
1.478792510508215585e-01
1.478792510508215585e-01
1.478792510508215585e-01
1.348872755063049156e-01
1.348872755063049156e-01
1.574321742453190787e-01
1.574321742453190787e-01
1.574321742453190787e-01
1.849445930454719222e-01
1.849445930454719222e-01
1.730989682842949962e-01
1.730989682842949962e-01
1.730989682842949962e-01
1.914405808177302160e-01
1.914405808177302160e-01
2.193351165456629837e-01
2.193351165456629837e-01
2.193351165456629837e-01
2.086358425678257467e-01
2.086358425678257467e-01
2.158960641956438609e-01
2.158960641956438609e-01
2.158960641956438609e-01
2.296522735957202965e-01
2.296522735957202965e-01
2.422621322124570153e-01
2.422621322124570153e-01
2.422621322124570153e-01
2.544898739014138100e-01
2.544898739014138100e-01
2.892625143293847678e-01
2.892625143293847678e-01
2.892625143293847678e-01
2.770347726404279731e-01
2.770347726404279731e-01
3.007260221627818253e-01
3.007260221627818253e-01
3.007260221627818253e-01
2.919373328238440979e-01
2.919373328238440979e-01
2.919373328238440979e-01
2.919373328238440979e-01
2.919373328238440979e-01
3.167749331295376392e-01
3.167749331295376392e-01
3.225066870462361401e-01
3.225066870462361401e-01
3.225066870462361401e-01
3.492548719908292187e-01
3.492548719908292187e-01
3.542223920519679270e-01
3.542223920519679270e-01
3.542223920519679270e-01
3.465800534963698887e-01
3.465800534963698887e-01
3.641574321742453435e-01
3.641574321742453435e-01
3.641574321742453435e-01
3.687428353076040999e-01
3.687428353076040999e-01
3.568972105464272015e-01
3.568972105464272015e-01
3.568972105464272015e-01
3.821169277799006392e-01
3.821169277799006392e-01
3.672143675964845144e-01
3.672143675964845144e-01
3.672143675964845144e-01
3.721818876576232227e-01
3.721818876576232227e-01
3.886129155521589329e-01
3.886129155521589329e-01
3.886129155521589329e-01
3.901413832632785739e-01
3.901413832632785739e-01
3.844096293465800729e-01
3.844096293465800729e-01
3.844096293465800729e-01
3.882307986243790365e-01
3.882307986243790365e-01
3.878486816965991402e-01
3.878486816965991402e-01
3.878486816965991402e-01
3.836453954910202246e-01
3.836453954910202246e-01
4.023691249522353686e-01
4.023691249522353686e-01
4.023691249522353686e-01
3.897592663354986775e-01
3.897592663354986775e-01
3.844096293465800729e-01
3.844096293465800729e-01
3.844096293465800729e-01
4.077187619411539732e-01
4.077187619411539732e-01
3.966373710355368676e-01
3.966373710355368676e-01
3.966373710355368676e-01
3.935804356132976967e-01
3.935804356132976967e-01
4.042797095911349059e-01
4.042797095911349059e-01
4.042797095911349059e-01
3.931983186855177448e-01
3.931983186855177448e-01
3.974016048910966603e-01
3.974016048910966603e-01
3.974016048910966603e-01
3.794421092854413646e-01
3.794421092854413646e-01
3.794421092854413646e-01
3.794421092854413646e-01
3.794421092854413646e-01
3.931983186855177448e-01
3.931983186855177448e-01
3.687428353076040999e-01
3.687428353076040999e-01
3.687428353076040999e-01
3.668322506687046181e-01
3.668322506687046181e-01
3.714176538020634299e-01
3.714176538020634299e-01
3.714176538020634299e-01
3.649216660298051362e-01
3.649216660298051362e-01
3.565150936186473052e-01
3.565150936186473052e-01
3.565150936186473052e-01
3.568972105464272015e-01
3.568972105464272015e-01
3.561329766908674088e-01
3.561329766908674088e-01
3.561329766908674088e-01
3.633931983186854953e-01
3.633931983186854953e-01
3.404661826518914913e-01
3.404661826518914913e-01
3.404661826518914913e-01
3.630110813909055989e-01
3.630110813909055989e-01
3.362628964463125758e-01
3.362628964463125758e-01
3.362628964463125758e-01
3.397019487963316986e-01
3.397019487963316986e-01
3.439052350019105586e-01
3.439052350019105586e-01
3.439052350019105586e-01
3.274742071073748484e-01
3.274742071073748484e-01
3.202139854795567619e-01
3.202139854795567619e-01
3.202139854795567619e-01
3.209782193351165547e-01
3.209782193351165547e-01
3.118074130683989309e-01
3.118074130683989309e-01
3.118074130683989309e-01
3.163928162017577428e-01
3.163928162017577428e-01
3.270920901795949520e-01
3.270920901795949520e-01
3.270920901795949520e-01
3.007260221627818253e-01
3.007260221627818253e-01
3.007260221627818253e-01
3.007260221627818253e-01
3.007260221627818253e-01
3.183034008406572246e-01
3.183034008406572246e-01
3.022544898739014108e-01
3.022544898739014108e-01
3.022544898739014108e-01
3.087504776461597045e-01
3.087504776461597045e-01
2.831486434849063705e-01
2.831486434849063705e-01
2.831486434849063705e-01
2.999617883072220326e-01
2.999617883072220326e-01
2.808559419182269923e-01
2.808559419182269923e-01
2.808559419182269923e-01
2.739778372181887467e-01
2.739778372181887467e-01
2.892625143293847678e-01
2.892625143293847678e-01
2.892625143293847678e-01
2.686282002292701421e-01
2.686282002292701421e-01
2.571646923958731401e-01
2.571646923958731401e-01
2.571646923958731401e-01
2.564004585403133474e-01
2.564004585403133474e-01
2.682460833014902457e-01
2.682460833014902457e-01
2.682460833014902457e-01
2.606037447458922629e-01
2.606037447458922629e-01
2.376767290790982035e-01
2.376767290790982035e-01
2.567825754680932437e-01
2.567825754680932437e-01
2.567825754680932437e-01
2.518150554069545355e-01
2.518150554069545355e-01
2.304165074512800893e-01
2.304165074512800893e-01
2.304165074512800893e-01
2.288880397401604760e-01
2.288880397401604760e-01
2.239205196790217678e-01
2.239205196790217678e-01
2.239205196790217678e-01
2.067252579289262648e-01
2.067252579289262648e-01
2.055789071455865480e-01
2.055789071455865480e-01
2.055789071455865480e-01
2.143675964845242754e-01
2.143675964845242754e-01
2.078716087122659539e-01
2.078716087122659539e-01
2.078716087122659539e-01
2.147497134123041718e-01
2.147497134123041718e-01
1.914405808177302160e-01
1.914405808177302160e-01
1.914405808177302160e-01
1.891478792510508100e-01
1.891478792510508100e-01
1.925869316010699328e-01
1.925869316010699328e-01
1.925869316010699328e-01
1.983186855177684338e-01
1.983186855177684338e-01
1.960259839510890278e-01
1.960259839510890278e-01
1.960259839510890278e-01
1.902942300343905269e-01
1.902942300343905269e-01
1.880015284677111209e-01
1.880015284677111209e-01
1.880015284677111209e-01
1.761559037065341948e-01
1.761559037065341948e-01
1.826518914787925163e-01
1.826518914787925163e-01
1.826518914787925163e-01
1.616354604508979664e-01
1.616354604508979664e-01
1.543752388230798522e-01
1.543752388230798522e-01
1.543752388230798522e-01
1.513183034008406536e-01
1.513183034008406536e-01
1.559037065341994654e-01
1.559037065341994654e-01
1.559037065341994654e-01
1.623996943064577869e-01
1.623996943064577869e-01
1.467329002674818417e-01
1.467329002674818417e-01
1.467329002674818417e-01
1.497898356897210681e-01
1.497898356897210681e-01
1.379442109285441420e-01
1.379442109285441420e-01
1.379442109285441420e-01
1.494077187619411440e-01
1.494077187619411440e-01
1.440580817730225394e-01
1.440580817730225394e-01
1.440580817730225394e-01
1.474971341230416622e-01
1.474971341230416622e-01
1.345051585785250192e-01
1.345051585785250192e-01
1.345051585785250192e-01
1.570500573175391545e-01
1.570500573175391545e-01
1.593427588842185605e-01
1.593427588842185605e-01
1.593427588842185605e-01
1.360336262896446324e-01
1.360336262896446324e-01
1.291555215896064146e-01
1.291555215896064146e-01
1.291555215896064146e-01
1.543752388230798522e-01
1.543752388230798522e-01
1.310661062285059242e-01
1.310661062285059242e-01
1.310661062285059242e-01
1.417653802063431334e-01
1.417653802063431334e-01
1.283912877340466219e-01
1.283912877340466219e-01
1.283912877340466219e-01
1.333588077951853301e-01
1.333588077951853301e-01
1.283912877340466219e-01
1.283912877340466219e-01
1.283912877340466219e-01
1.310661062285059242e-01
1.310661062285059242e-01
1.471150171952617380e-01
1.471150171952617380e-01
1.471150171952617380e-01
1.474971341230416622e-01
1.474971341230416622e-01
1.257164692395873196e-01
1.257164692395873196e-01
1.257164692395873196e-01
1.478792510508215585e-01
1.478792510508215585e-01
1.440580817730225394e-01
1.440580817730225394e-01
1.440580817730225394e-01
1.394726786396637275e-01
1.394726786396637275e-01
1.356515093618647361e-01
1.356515093618647361e-01
1.356515093618647361e-01
1.413832632785632371e-01
1.413832632785632371e-01
1.413832632785632371e-01
1.413832632785632371e-01
1.413832632785632371e-01
1.180741306839892951e-01
1.180741306839892951e-01
1.264807030951471123e-01
1.264807030951471123e-01
1.264807030951471123e-01
1.306839893007260278e-01
1.306839893007260278e-01
1.264807030951471123e-01
1.264807030951471123e-01
1.264807030951471123e-01
1.478792510508215585e-01
1.478792510508215585e-01
1.367978601452044252e-01
1.367978601452044252e-01
1.367978601452044252e-01
1.207489491784486113e-01
1.207489491784486113e-01
1.455865494841421526e-01
1.455865494841421526e-01
1.455865494841421526e-01
1.226595338173481070e-01
1.226595338173481070e-01
1.188383645395491017e-01
1.188383645395491017e-01
1.188383645395491017e-01
1.333588077951853301e-01
1.333588077951853301e-01
1.215131830340084040e-01
1.215131830340084040e-01
1.215131830340084040e-01
1.452044325563622562e-01
1.452044325563622562e-01
1.410011463507833407e-01
1.410011463507833407e-01
1.410011463507833407e-01
1.241880015284677063e-01
1.241880015284677063e-01
1.379442109285441420e-01
1.379442109285441420e-01
1.379442109285441420e-01
1.192204814673289981e-01
1.192204814673289981e-01
1.238058846006878100e-01
1.238058846006878100e-01
1.238058846006878100e-01
1.260985861673672159e-01
1.260985861673672159e-01
1.322124570118456133e-01
1.322124570118456133e-01
1.322124570118456133e-01
1.329766908674054338e-01
1.329766908674054338e-01
1.352693924340848397e-01
1.352693924340848397e-01
1.352693924340848397e-01
1.180741306839892951e-01
1.180741306839892951e-01
1.165456629728696958e-01
1.165456629728696958e-01
1.165456629728696958e-01
1.383263278563240384e-01
1.383263278563240384e-01
1.169277799006495921e-01
1.169277799006495921e-01
1.169277799006495921e-01
1.153993121895299928e-01
1.153993121895299928e-01
1.104317921283912846e-01
1.104317921283912846e-01
1.104317921283912846e-01
1.150171952617500964e-01
1.150171952617500964e-01
1.226595338173481070e-01
1.226595338173481070e-01
1.081390905617118786e-01
1.081390905617118786e-01
1.081390905617118786e-01
1.287734046618265182e-01
1.287734046618265182e-01
1.073748567061520859e-01
1.073748567061520859e-01
1.073748567061520859e-01
1.241880015284677063e-01
1.241880015284677063e-01
1.012609858616736747e-01
1.012609858616736747e-01
1.012609858616736747e-01
1.234237676729079136e-01
1.234237676729079136e-01
1.222774168895682106e-01
1.222774168895682106e-01
1.222774168895682106e-01
1.092854413450515816e-01
1.092854413450515816e-01
1.188383645395491017e-01
1.188383645395491017e-01
1.188383645395491017e-01
9.514711501719526343e-02
9.514711501719526343e-02
9.973251815055407532e-02
9.973251815055407532e-02
9.973251815055407532e-02
9.705769965609475913e-02
9.705769965609475913e-02
1.092854413450515816e-01
1.092854413450515816e-01
