1.486434849063813513e-01
1.486434849063813513e-01
1.306839893007260278e-01
1.306839893007260278e-01
1.287734046618265182e-01
1.287734046618265182e-01
1.287734046618265182e-01
1.264807030951471123e-01
1.264807030951471123e-01
1.394726786396637275e-01
1.394726786396637275e-01
1.394726786396637275e-01
1.318303400840657169e-01
1.318303400840657169e-01
1.452044325563622562e-01
1.452044325563622562e-01
1.452044325563622562e-01
1.260985861673672159e-01
1.260985861673672159e-01
1.394726786396637275e-01
1.394726786396637275e-01
1.394726786396637275e-01
1.352693924340848397e-01
1.352693924340848397e-01
1.345051585785250192e-01
1.345051585785250192e-01
1.345051585785250192e-01
1.230416507451280034e-01
1.230416507451280034e-01
1.314482231562858205e-01
1.314482231562858205e-01
1.314482231562858205e-01
1.390905617118838311e-01
1.390905617118838311e-01
1.268628200229270087e-01
1.268628200229270087e-01
1.268628200229270087e-01
1.425296140619029539e-01
1.425296140619029539e-01
1.394726786396637275e-01
1.394726786396637275e-01
1.394726786396637275e-01
1.245701184562476166e-01
1.245701184562476166e-01
1.226595338173481070e-01
1.226595338173481070e-01
1.226595338173481070e-01
1.303018723729461315e-01
1.303018723729461315e-01
1.276270538784868291e-01
1.276270538784868291e-01
1.276270538784868291e-01
1.211310661062285077e-01
1.211310661062285077e-01
1.310661062285059242e-01
1.310661062285059242e-01
1.310661062285059242e-01
1.188383645395491017e-01
1.188383645395491017e-01
1.264807030951471123e-01
1.264807030951471123e-01
1.264807030951471123e-01
1.184562476117692054e-01
1.184562476117692054e-01
1.367978601452044252e-01
1.367978601452044252e-01
1.367978601452044252e-01
1.138708444784103935e-01
1.138708444784103935e-01
1.180741306839892951e-01
1.180741306839892951e-01
1.180741306839892951e-01
1.260985861673672159e-01
1.260985861673672159e-01
1.203668322506687011e-01
1.203668322506687011e-01
1.203668322506687011e-01
1.142529614061902898e-01
1.142529614061902898e-01
1.310661062285059242e-01
1.310661062285059242e-01
1.310661062285059242e-01
1.207489491784486113e-01
1.207489491784486113e-01
1.180741306839892951e-01
1.180741306839892951e-01
1.180741306839892951e-01
1.226595338173481070e-01
1.226595338173481070e-01
1.345051585785250192e-01
1.345051585785250192e-01
1.345051585785250192e-01
1.387084447841039347e-01
1.387084447841039347e-01
1.295376385173863110e-01
1.295376385173863110e-01
1.295376385173863110e-01
1.222774168895682106e-01
1.222774168895682106e-01
1.341230416507451229e-01
1.341230416507451229e-01
1.341230416507451229e-01
1.364157432174245288e-01
1.364157432174245288e-01
1.452044325563622562e-01
1.452044325563622562e-01
1.452044325563622562e-01
1.352693924340848397e-01
1.352693924340848397e-01
1.455865494841421526e-01
1.455865494841421526e-01
1.455865494841421526e-01
1.673672143675964952e-01
1.673672143675964952e-01
1.730989682842949962e-01
1.730989682842949962e-01
1.730989682842949962e-01
1.692777990064959770e-01
1.692777990064959770e-01
1.784486052732136008e-01
1.784486052732136008e-01
1.784486052732136008e-01
1.784486052732136008e-01
1.784486052732136008e-01
1.845624761176920259e-01
1.845624761176920259e-01
1.845624761176920259e-01
1.899121131066106305e-01
1.899121131066106305e-01
2.063431410011463407e-01
2.063431410011463407e-01
2.063431410011463407e-01
2.074894917844860576e-01
2.074894917844860576e-01
2.147497134123041718e-01
2.147497134123041718e-01
2.147497134123041718e-01
2.376767290790982035e-01
2.376767290790982035e-01
2.388230798624378926e-01
2.388230798624378926e-01
2.388230798624378926e-01
2.453190676346962140e-01
2.453190676346962140e-01
2.579289262514329328e-01
2.579289262514329328e-01
2.579289262514329328e-01
2.602216278181123665e-01
2.602216278181123665e-01
2.781811234237676622e-01
2.781811234237676622e-01
2.781811234237676622e-01
2.923194497516239942e-01
2.923194497516239942e-01
2.877340466182651824e-01
2.877340466182651824e-01
2.877340466182651824e-01
2.984333205961023916e-01
2.984333205961023916e-01
3.064577760794803263e-01
3.064577760794803263e-01
3.064577760794803263e-01
3.114252961406190345e-01
3.114252961406190345e-01
3.267099732518150557e-01
3.267099732518150557e-01
3.267099732518150557e-01
3.381734810852120576e-01
3.381734810852120576e-01
3.324417271685135566e-01
3.324417271685135566e-01
3.324417271685135566e-01
3.496369889186091151e-01
3.496369889186091151e-01
3.393198318685518022e-01
3.393198318685518022e-01
3.393198318685518022e-01
3.511654566297287006e-01
3.511654566297287006e-01
3.603362628964463243e-01
3.603362628964463243e-01
3.603362628964463243e-01
3.568972105464272015e-01
3.568972105464272015e-01
3.565150936186473052e-01
3.565150936186473052e-01
3.633931983186854953e-01
3.633931983186854953e-01
3.633931983186854953e-01
3.779136415743217237e-01
3.779136415743217237e-01
3.698891860909438445e-01
3.698891860909438445e-01
3.698891860909438445e-01
3.737103553687428081e-01
3.737103553687428081e-01
3.775315246465418273e-01
3.775315246465418273e-01
3.775315246465418273e-01
3.771494077187619309e-01
3.771494077187619309e-01
3.844096293465800729e-01
3.844096293465800729e-01
3.844096293465800729e-01
3.840275124188001765e-01
3.840275124188001765e-01
3.993121895299961976e-01
3.993121895299961976e-01
3.993121895299961976e-01
3.912877340466182630e-01
3.912877340466182630e-01
3.966373710355368676e-01
3.966373710355368676e-01
3.966373710355368676e-01
3.909056171188383666e-01
3.909056171188383666e-01
3.939625525410775930e-01
3.939625525410775930e-01
3.939625525410775930e-01
3.886129155521589329e-01
3.886129155521589329e-01
3.901413832632785739e-01
3.901413832632785739e-01
3.901413832632785739e-01
3.931983186855177448e-01
3.931983186855177448e-01
3.943446694688574894e-01
3.943446694688574894e-01
3.943446694688574894e-01
3.909056171188383666e-01
3.909056171188383666e-01
3.993121895299961976e-01
3.993121895299961976e-01
3.993121895299961976e-01
3.901413832632785739e-01
3.901413832632785739e-01
3.966373710355368676e-01
3.966373710355368676e-01
3.966373710355368676e-01
3.985479556744364049e-01
3.985479556744364049e-01
3.977837218188765567e-01
3.977837218188765567e-01
3.977837218188765567e-01
3.893771494077187811e-01
3.893771494077187811e-01
3.886129155521589329e-01
3.886129155521589329e-01
3.886129155521589329e-01
4.031333588077951613e-01
4.031333588077951613e-01
3.901413832632785739e-01
3.901413832632785739e-01
3.901413832632785739e-01
3.824990447076805355e-01
3.824990447076805355e-01
3.878486816965991402e-01
3.878486816965991402e-01
3.878486816965991402e-01
3.974016048910966603e-01
3.974016048910966603e-01
3.874665647688192438e-01
3.874665647688192438e-01
3.874665647688192438e-01
3.943446694688574894e-01
3.943446694688574894e-01
3.859380970576996583e-01
3.859380970576996583e-01
3.859380970576996583e-01
3.912877340466182630e-01
3.912877340466182630e-01
3.824990447076805355e-01
3.824990447076805355e-01
3.824990447076805355e-01
3.905235001910584702e-01
3.905235001910584702e-01
3.805884600687810537e-01
3.805884600687810537e-01
3.805884600687810537e-01
3.867023309132594511e-01
3.867023309132594511e-01
3.740924722965227600e-01
3.740924722965227600e-01
3.740924722965227600e-01
3.889950324799388848e-01
3.889950324799388848e-01
3.771494077187619309e-01
3.771494077187619309e-01
3.771494077187619309e-01
3.809705769965609501e-01
3.809705769965609501e-01
3.737103553687428081e-01
3.737103553687428081e-01
3.737103553687428081e-01
3.836453954910202246e-01
3.836453954910202246e-01
3.744745892243026564e-01
3.744745892243026564e-01
3.744745892243026564e-01
3.679786014520443072e-01
3.679786014520443072e-01
3.695070691631639481e-01
3.695070691631639481e-01
3.695070691631639481e-01
3.782957585021016200e-01
3.782957585021016200e-01
3.752388230798624491e-01
3.752388230798624491e-01
3.752388230798624491e-01
3.760030569354222418e-01
3.760030569354222418e-01
3.630110813909055989e-01
3.630110813909055989e-01
3.630110813909055989e-01
3.717997707298433263e-01
3.717997707298433263e-01
3.584256782575467870e-01
3.584256782575467870e-01
3.584256782575467870e-01
3.679786014520443072e-01
3.679786014520443072e-01
3.733282384409629118e-01
3.733282384409629118e-01
3.733282384409629118e-01
3.549866259075277197e-01
3.549866259075277197e-01
3.465800534963698887e-01
3.465800534963698887e-01
3.465800534963698887e-01
3.538402751241879751e-01
3.538402751241879751e-01
3.477264042797095778e-01
3.477264042797095778e-01
3.477264042797095778e-01
3.534581581964080788e-01
3.534581581964080788e-01
3.549866259075277197e-01
3.549866259075277197e-01
3.549866259075277197e-01
3.427588842185708695e-01
3.427588842185708695e-01
3.431410011463507659e-01
3.431410011463507659e-01
3.431410011463507659e-01
3.358807795185326794e-01
3.358807795185326794e-01
3.362628964463125758e-01
3.362628964463125758e-01
3.362628964463125758e-01
3.320596102407336603e-01
3.320596102407336603e-01
3.286205578907145375e-01
3.286205578907145375e-01
3.286205578907145375e-01
3.297669086740542821e-01
3.297669086740542821e-01
3.316774933129537639e-01
3.316774933129537639e-01
3.316774933129537639e-01
3.152464654184180537e-01
3.152464654184180537e-01
3.267099732518150557e-01
3.267099732518150557e-01
3.267099732518150557e-01
3.179212839128773282e-01
3.179212839128773282e-01
3.221245701184562438e-01
3.221245701184562438e-01
3.221245701184562438e-01
3.079862437905999117e-01
3.079862437905999117e-01
3.091325945739396008e-01
3.091325945739396008e-01
3.091325945739396008e-01
3.121895299961788273e-01
3.121895299961788273e-01
3.014902560183416180e-01
3.014902560183416180e-01
3.014902560183416180e-01
3.068398930072602226e-01
3.068398930072602226e-01
2.972869698127627025e-01
2.972869698127627025e-01
2.972869698127627025e-01
2.896446312571647197e-01
2.896446312571647197e-01
2.888803974016048715e-01
2.888803974016048715e-01
2.777990064959877659e-01
2.777990064959877659e-01
2.777990064959877659e-01
2.827665265571264741e-01
2.827665265571264741e-01
2.797095911348873032e-01
2.797095911348873032e-01
2.797095911348873032e-01
2.850592281238059078e-01
2.850592281238059078e-01
2.751241880015284913e-01
2.751241880015284913e-01
2.751241880015284913e-01
2.835307604126862668e-01
2.835307604126862668e-01
2.774168895682078695e-01
2.774168895682078695e-01
2.774168895682078695e-01
2.713030187237294721e-01
2.713030187237294721e-01
2.720672525792892649e-01
2.720672525792892649e-01
2.720672525792892649e-01
2.663354986625907639e-01
2.663354986625907639e-01
2.686282002292701421e-01
2.686282002292701421e-01
2.686282002292701421e-01
2.762705387848681804e-01
2.762705387848681804e-01
2.735957202904088503e-01
2.735957202904088503e-01
2.735957202904088503e-01
2.682460833014902457e-01
2.682460833014902457e-01
2.609858616736721593e-01
2.609858616736721593e-01
2.609858616736721593e-01
2.705387848681696794e-01
2.705387848681696794e-01
2.713030187237294721e-01
2.713030187237294721e-01
2.713030187237294721e-01
2.770347726404279731e-01
2.770347726404279731e-01
2.770347726404279731e-01
2.770347726404279731e-01
2.770347726404279731e-01
2.567825754680932437e-01
2.567825754680932437e-01
2.602216278181123665e-01
2.602216278181123665e-01
2.602216278181123665e-01
2.590752770347726219e-01
2.590752770347726219e-01
2.583110431792128292e-01
2.583110431792128292e-01
2.583110431792128292e-01
2.644249140236912266e-01
2.644249140236912266e-01
2.613679786014520556e-01
2.613679786014520556e-01
2.613679786014520556e-01
2.617500955292319520e-01
2.617500955292319520e-01
2.598395108903324147e-01
2.598395108903324147e-01
2.598395108903324147e-01
2.583110431792128292e-01
2.583110431792128292e-01
2.713030187237294721e-01
2.713030187237294721e-01
2.713030187237294721e-01
2.537256400458540173e-01
2.537256400458540173e-01
2.648070309514711229e-01
2.648070309514711229e-01
2.648070309514711229e-01
2.606037447458922629e-01
2.606037447458922629e-01
2.521971723347344319e-01
2.521971723347344319e-01
2.521971723347344319e-01
2.533435231180741209e-01
2.533435231180741209e-01
2.590752770347726219e-01
2.590752770347726219e-01
2.590752770347726219e-01
2.518150554069545355e-01
2.518150554069545355e-01
2.499044707680550259e-01
2.499044707680550259e-01
2.499044707680550259e-01
2.659533817348108675e-01
2.659533817348108675e-01
2.472296522735957236e-01
2.472296522735957236e-01
2.472296522735957236e-01
2.640427970959113302e-01
2.640427970959113302e-01
2.491402369124952332e-01
2.491402369124952332e-01
2.491402369124952332e-01
2.548719908291937064e-01
2.548719908291937064e-01
2.544898739014138100e-01
2.544898739014138100e-01
2.544898739014138100e-01
2.434084829957967044e-01
2.434084829957967044e-01
2.483760030569354127e-01
2.483760030569354127e-01
2.483760030569354127e-01
2.552541077569736583e-01
2.552541077569736583e-01
2.487581199847153091e-01
2.487581199847153091e-01
2.487581199847153091e-01
2.487581199847153091e-01
2.487581199847153091e-01
2.544898739014138100e-01
2.544898739014138100e-01
2.544898739014138100e-01
2.434084829957967044e-01
2.434084829957967044e-01
2.395873137179977130e-01
2.395873137179977130e-01
2.395873137179977130e-01
2.426442491402369117e-01
2.426442491402369117e-01
2.449369507069163177e-01
2.449369507069163177e-01
2.449369507069163177e-01
2.457011845624761104e-01
2.457011845624761104e-01
2.330913259457393916e-01
2.330913259457393916e-01
2.330913259457393916e-01
2.338555598012991843e-01
2.338555598012991843e-01
2.384409629346579962e-01
2.384409629346579962e-01
2.384409629346579962e-01
2.296522735957202965e-01
2.296522735957202965e-01
2.319449751623997025e-01
2.319449751623997025e-01
2.319449751623997025e-01
2.231562858234619751e-01
2.231562858234619751e-01
2.304165074512800893e-01
2.304165074512800893e-01
2.304165074512800893e-01
2.204814673290026728e-01
2.204814673290026728e-01
2.361482613679785902e-01
2.361482613679785902e-01
2.361482613679785902e-01
2.258311043179212774e-01
2.258311043179212774e-01
2.254489873901413810e-01
2.254489873901413810e-01
2.254489873901413810e-01
2.178066488345433704e-01
2.178066488345433704e-01
2.151318303400840681e-01
2.151318303400840681e-01
2.151318303400840681e-01
2.189529996178830595e-01
2.189529996178830595e-01
2.281238058846006833e-01
2.281238058846006833e-01
2.281238058846006833e-01
2.220099350401222860e-01
2.220099350401222860e-01
2.189529996178830595e-01
2.189529996178830595e-01
2.189529996178830595e-01
2.071073748567061612e-01
2.071073748567061612e-01
2.162781811234237572e-01
2.162781811234237572e-01
2.162781811234237572e-01
2.151318303400840681e-01
2.151318303400840681e-01
1.979365685899885374e-01
1.979365685899885374e-01
1.979365685899885374e-01
2.124570118456247658e-01
2.124570118456247658e-01
2.086358425678257467e-01
2.086358425678257467e-01
2.086358425678257467e-01
2.124570118456247658e-01
2.124570118456247658e-01
2.113106610622850490e-01
2.113106610622850490e-01
2.113106610622850490e-01
1.987008024455483302e-01
1.987008024455483302e-01
2.109285441345051526e-01
2.109285441345051526e-01
2.109285441345051526e-01
1.971723347344287447e-01
1.971723347344287447e-01
2.017577378677875566e-01
2.017577378677875566e-01
1.910584638899503196e-01
1.910584638899503196e-01
1.910584638899503196e-01
1.834161253343523090e-01
1.834161253343523090e-01
1.837982422621322054e-01
1.837982422621322054e-01
1.837982422621322054e-01
1.815055406954527994e-01
1.815055406954527994e-01
1.815055406954527994e-01
1.815055406954527994e-01
1.815055406954527994e-01
1.918226977455101123e-01
1.918226977455101123e-01
1.845624761176920259e-01
1.845624761176920259e-01
1.845624761176920259e-01
1.876194115399312246e-01
1.876194115399312246e-01
1.784486052732136008e-01
1.784486052732136008e-01
1.784486052732136008e-01
1.734810852120748925e-01
1.734810852120748925e-01
1.769201375620939876e-01
1.769201375620939876e-01
1.769201375620939876e-01
1.792128391287733935e-01
1.792128391287733935e-01
1.811234237676729031e-01
1.811234237676729031e-01
1.811234237676729031e-01
1.727168513565150998e-01
1.727168513565150998e-01
1.730989682842949962e-01
1.730989682842949962e-01
1.730989682842949962e-01
1.799770729843332140e-01
1.799770729843332140e-01
1.845624761176920259e-01
1.845624761176920259e-01
1.845624761176920259e-01
1.784486052732136008e-01
1.784486052732136008e-01
1.818876576232326958e-01
1.818876576232326958e-01
1.818876576232326958e-01
1.746274359954146094e-01
1.746274359954146094e-01
1.803591899121131104e-01
1.803591899121131104e-01
1.803591899121131104e-01
1.727168513565150998e-01
1.727168513565150998e-01
1.616354604508979664e-01
1.616354604508979664e-01
1.616354604508979664e-01
1.692777990064959770e-01
1.692777990064959770e-01
1.620175773786778628e-01
1.620175773786778628e-01
1.620175773786778628e-01
1.700420328620557975e-01
1.700420328620557975e-01
1.738632021398547889e-01
1.738632021398547889e-01
1.738632021398547889e-01
1.585785250286587678e-01
1.585785250286587678e-01
1.704241497898356938e-01
1.704241497898356938e-01
1.704241497898356938e-01
1.559037065341994654e-01
1.559037065341994654e-01
1.688956820787160806e-01
1.688956820787160806e-01
1.688956820787160806e-01
1.555215896064195691e-01
1.555215896064195691e-01
1.497898356897210681e-01
1.497898356897210681e-01
1.497898356897210681e-01
1.604891096675582773e-01
1.604891096675582773e-01
1.635460450897974760e-01
1.635460450897974760e-01
1.635460450897974760e-01
1.578142911730989750e-01
1.578142911730989750e-01
1.524646541841803704e-01
1.524646541841803704e-01
1.524646541841803704e-01
1.509361864730607572e-01
1.509361864730607572e-01
1.578142911730989750e-01
1.578142911730989750e-01
1.578142911730989750e-01
1.581964081008788714e-01
1.581964081008788714e-01
1.455865494841421526e-01
1.455865494841421526e-01
1.455865494841421526e-01
1.589606419564386641e-01
1.589606419564386641e-01
1.536110049675200595e-01
1.536110049675200595e-01
1.536110049675200595e-01
1.623996943064577869e-01
1.623996943064577869e-01
1.539931218952999559e-01
1.539931218952999559e-01
1.539931218952999559e-01
1.440580817730225394e-01
1.440580817730225394e-01
1.440580817730225394e-01
1.440580817730225394e-01
1.440580817730225394e-01
1.513183034008406536e-01
1.513183034008406536e-01
1.497898356897210681e-01
1.497898356897210681e-01
1.497898356897210681e-01
1.452044325563622562e-01
1.452044325563622562e-01
1.444401987008024357e-01
1.444401987008024357e-01
1.444401987008024357e-01
1.410011463507833407e-01
1.410011463507833407e-01
1.543752388230798522e-01
1.543752388230798522e-01
1.543752388230798522e-01
1.593427588842185605e-01
1.593427588842185605e-01
1.547573557508597764e-01
1.547573557508597764e-01
1.547573557508597764e-01
1.440580817730225394e-01
1.440580817730225394e-01
1.425296140619029539e-01
1.425296140619029539e-01
1.425296140619029539e-01
1.509361864730607572e-01
1.509361864730607572e-01
1.345051585785250192e-01
1.345051585785250192e-01
1.345051585785250192e-01
1.536110049675200595e-01
1.536110049675200595e-01
1.398547955674436516e-01
1.398547955674436516e-01
1.398547955674436516e-01
1.387084447841039347e-01
1.387084447841039347e-01
1.455865494841421526e-01
1.455865494841421526e-01
1.455865494841421526e-01
1.532288880397401631e-01
1.532288880397401631e-01
1.379442109285441420e-01
1.379442109285441420e-01
1.379442109285441420e-01
1.402369124952235480e-01
1.402369124952235480e-01
1.394726786396637275e-01
1.394726786396637275e-01
1.394726786396637275e-01
1.429117309896828503e-01
1.429117309896828503e-01
1.413832632785632371e-01
1.413832632785632371e-01
1.413832632785632371e-01
1.390905617118838311e-01
1.390905617118838311e-01
1.352693924340848397e-01
1.352693924340848397e-01
1.352693924340848397e-01
1.303018723729461315e-01
1.303018723729461315e-01
1.329766908674054338e-01
1.329766908674054338e-01
1.329766908674054338e-01
1.341230416507451229e-01
1.341230416507451229e-01
1.410011463507833407e-01
1.410011463507833407e-01
1.410011463507833407e-01
1.429117309896828503e-01
1.429117309896828503e-01
1.364157432174245288e-01
1.364157432174245288e-01
1.364157432174245288e-01
1.337409247229652265e-01
1.337409247229652265e-01
1.360336262896446324e-01
1.360336262896446324e-01
1.360336262896446324e-01
1.318303400840657169e-01
1.318303400840657169e-01
1.444401987008024357e-01
1.444401987008024357e-01
1.467329002674818417e-01
1.467329002674818417e-01
1.467329002674818417e-01
1.268628200229270087e-01
1.268628200229270087e-01
1.455865494841421526e-01
1.455865494841421526e-01
1.455865494841421526e-01
1.329766908674054338e-01
1.329766908674054338e-01
1.314482231562858205e-01
1.314482231562858205e-01
1.314482231562858205e-01
1.383263278563240384e-01
1.383263278563240384e-01
1.360336262896446324e-01
1.360336262896446324e-01
1.360336262896446324e-01
1.436759648452426430e-01
1.436759648452426430e-01
1.490256018341612476e-01
1.490256018341612476e-01
1.490256018341612476e-01
1.371799770729843215e-01
1.371799770729843215e-01
1.276270538784868291e-01
1.276270538784868291e-01
1.276270538784868291e-01
1.390905617118838311e-01
1.390905617118838311e-01
1.283912877340466219e-01
1.283912877340466219e-01
1.283912877340466219e-01
1.299197554451662073e-01
1.299197554451662073e-01
1.467329002674818417e-01
1.467329002674818417e-01
1.467329002674818417e-01
1.364157432174245288e-01
1.364157432174245288e-01
1.398547955674436516e-01
1.398547955674436516e-01
1.398547955674436516e-01
1.379442109285441420e-01
1.379442109285441420e-01
1.341230416507451229e-01
1.341230416507451229e-01
1.341230416507451229e-01
1.398547955674436516e-01
1.398547955674436516e-01
1.394726786396637275e-01
1.394726786396637275e-01
1.394726786396637275e-01
1.425296140619029539e-01
1.425296140619029539e-01
1.410011463507833407e-01
1.410011463507833407e-01
1.410011463507833407e-01
1.352693924340848397e-01
1.352693924340848397e-01
1.341230416507451229e-01
1.341230416507451229e-01
1.341230416507451229e-01
1.310661062285059242e-01
1.310661062285059242e-01
1.429117309896828503e-01
1.429117309896828503e-01
1.429117309896828503e-01
1.513183034008406536e-01
1.513183034008406536e-01
1.432938479174627466e-01
1.432938479174627466e-01
1.432938479174627466e-01
1.448223156285823598e-01
1.448223156285823598e-01
1.467329002674818417e-01
1.467329002674818417e-01
1.467329002674818417e-01
1.379442109285441420e-01
1.379442109285441420e-01
1.486434849063813513e-01
1.486434849063813513e-01
1.486434849063813513e-01
1.283912877340466219e-01
1.283912877340466219e-01
1.341230416507451229e-01
1.341230416507451229e-01
1.341230416507451229e-01
1.360336262896446324e-01
1.360336262896446324e-01
1.306839893007260278e-01
1.306839893007260278e-01
1.306839893007260278e-01
1.421474971341230298e-01
1.421474971341230298e-01
1.398547955674436516e-01
1.398547955674436516e-01
1.398547955674436516e-01
1.352693924340848397e-01
1.352693924340848397e-01
1.337409247229652265e-01
1.337409247229652265e-01
1.337409247229652265e-01
1.314482231562858205e-01
1.314482231562858205e-01
1.222774168895682106e-01
1.222774168895682106e-01
1.222774168895682106e-01
1.280091708062667255e-01
1.280091708062667255e-01
1.245701184562476166e-01
1.245701184562476166e-01
1.245701184562476166e-01
1.429117309896828503e-01
1.429117309896828503e-01
1.356515093618647361e-01
1.356515093618647361e-01
1.356515093618647361e-01
1.283912877340466219e-01
1.283912877340466219e-01
1.390905617118838311e-01
1.390905617118838311e-01
1.390905617118838311e-01
1.192204814673289981e-01
1.192204814673289981e-01
1.383263278563240384e-01
1.383263278563240384e-01
1.383263278563240384e-01
1.211310661062285077e-01
1.211310661062285077e-01
1.306839893007260278e-01
1.306839893007260278e-01
1.306839893007260278e-01
1.230416507451280034e-01
1.230416507451280034e-01
1.379442109285441420e-01
1.379442109285441420e-01
1.379442109285441420e-01
1.310661062285059242e-01
1.310661062285059242e-01
1.352693924340848397e-01
1.352693924340848397e-01
1.352693924340848397e-01
1.322124570118456133e-01
1.322124570118456133e-01
1.379442109285441420e-01
1.379442109285441420e-01
1.379442109285441420e-01
1.211310661062285077e-01
1.211310661062285077e-01
1.306839893007260278e-01
1.306839893007260278e-01
1.306839893007260278e-01
1.176920137562093988e-01
1.176920137562093988e-01
1.325945739396255374e-01
1.325945739396255374e-01
1.325945739396255374e-01
1.318303400840657169e-01
1.318303400840657169e-01
1.314482231562858205e-01
1.314482231562858205e-01
1.314482231562858205e-01
1.153993121895299928e-01
1.153993121895299928e-01
1.264807030951471123e-01
1.264807030951471123e-01
1.264807030951471123e-01
1.127244936950706905e-01
1.127244936950706905e-01
1.234237676729079136e-01
1.234237676729079136e-01
1.234237676729079136e-01
1.306839893007260278e-01
1.306839893007260278e-01
1.150171952617500964e-01
1.150171952617500964e-01
1.150171952617500964e-01
1.218952999617883004e-01
1.218952999617883004e-01
1.226595338173481070e-01
1.226595338173481070e-01
1.226595338173481070e-01
1.238058846006878100e-01
1.238058846006878100e-01
1.264807030951471123e-01
1.264807030951471123e-01
1.264807030951471123e-01
1.199847153228888047e-01
1.199847153228888047e-01
1.215131830340084040e-01
1.215131830340084040e-01
1.215131830340084040e-01
1.192204814673289981e-01
1.192204814673289981e-01
1.222774168895682106e-01
1.222774168895682106e-01
1.222774168895682106e-01
1.218952999617883004e-01
1.218952999617883004e-01
1.199847153228888047e-01
1.199847153228888047e-01
1.199847153228888047e-01
1.402369124952235480e-01
1.402369124952235480e-01
1.459686664119220489e-01
1.459686664119220489e-01
1.467329002674818417e-01
1.467329002674818417e-01
1.467329002674818417e-01
1.387084447841039347e-01
1.387084447841039347e-01
1.513183034008406536e-01
1.513183034008406536e-01
1.513183034008406536e-01
1.505540695452808608e-01
1.505540695452808608e-01
1.562858234619793618e-01
1.562858234619793618e-01
1.562858234619793618e-01
1.711883836453954866e-01
1.711883836453954866e-01
1.643102789453572687e-01
1.643102789453572687e-01
1.643102789453572687e-01
1.826518914787925163e-01
1.826518914787925163e-01
1.883836453954910173e-01
1.883836453954910173e-01
1.883836453954910173e-01
1.990829193733282265e-01
1.990829193733282265e-01
2.197172334734428800e-01
2.197172334734428800e-01
2.197172334734428800e-01
2.078716087122659539e-01
2.078716087122659539e-01
2.208635842567825691e-01
2.208635842567825691e-01
2.208635842567825691e-01
2.204814673290026728e-01
2.204814673290026728e-01
2.388230798624378926e-01
2.388230798624378926e-01
2.388230798624378926e-01
2.571646923958731401e-01
2.571646923958731401e-01
2.590752770347726219e-01
2.590752770347726219e-01
2.590752770347726219e-01
2.751241880015284913e-01
2.751241880015284913e-01
2.842949942682460596e-01
2.842949942682460596e-01
2.842949942682460596e-01
2.781811234237676622e-01
2.781811234237676622e-01
2.888803974016048715e-01
2.888803974016048715e-01
2.888803974016048715e-01
3.114252961406190345e-01
3.114252961406190345e-01
3.175391669850974319e-01
3.175391669850974319e-01
3.175391669850974319e-01
3.225066870462361401e-01
3.225066870462361401e-01
3.274742071073748484e-01
3.274742071073748484e-01
3.274742071073748484e-01
3.290026748184944339e-01
3.290026748184944339e-01
3.400840657241115950e-01
3.400840657241115950e-01
3.400840657241115950e-01
3.549866259075277197e-01
3.549866259075277197e-01
3.504012227741689078e-01
3.504012227741689078e-01
3.504012227741689078e-01
3.687428353076040999e-01
3.687428353076040999e-01
3.572793274742070979e-01
3.572793274742070979e-01
3.572793274742070979e-01
3.672143675964845144e-01
3.672143675964845144e-01
3.668322506687046181e-01
3.668322506687046181e-01
3.668322506687046181e-01
3.878486816965991402e-01
3.878486816965991402e-01
3.756209400076423455e-01
3.756209400076423455e-01
3.756209400076423455e-01
3.943446694688574894e-01
3.943446694688574894e-01
3.931983186855177448e-01
3.931983186855177448e-01
3.931983186855177448e-01
4.004585403133358867e-01
4.004585403133358867e-01
3.993121895299961976e-01
3.993121895299961976e-01
3.993121895299961976e-01
3.939625525410775930e-01
3.939625525410775930e-01
4.019870080244554722e-01
4.019870080244554722e-01
4.019870080244554722e-01
4.081008788689338695e-01
4.081008788689338695e-01
4.115399312189529923e-01
4.115399312189529923e-01
4.115399312189529923e-01
4.042797095911349059e-01
4.042797095911349059e-01
3.985479556744364049e-01
3.985479556744364049e-01
3.985479556744364049e-01
4.016048910966755758e-01
4.016048910966755758e-01
4.161253343523118042e-01
4.161253343523118042e-01
4.161253343523118042e-01
4.065724111578142841e-01
4.065724111578142841e-01
4.088651127244937178e-01
4.088651127244937178e-01
4.088651127244937178e-01
4.172716851356514933e-01
4.172716851356514933e-01
4.126862820022926814e-01
4.126862820022926814e-01
4.126862820022926814e-01
4.073366450133740768e-01
4.073366450133740768e-01
4.023691249522353686e-01
4.023691249522353686e-01
4.023691249522353686e-01
4.134505158578525297e-01
4.134505158578525297e-01
4.035154757355751132e-01
4.035154757355751132e-01
4.035154757355751132e-01
4.134505158578525297e-01
4.134505158578525297e-01
4.008406572411157831e-01
4.008406572411157831e-01
4.008406572411157831e-01
4.130683989300725778e-01
4.130683989300725778e-01
4.061902942300343877e-01
4.061902942300343877e-01
4.061902942300343877e-01
4.027512418800152649e-01
4.027512418800152649e-01
3.943446694688574894e-01
3.943446694688574894e-01
3.943446694688574894e-01
4.084829957967138214e-01
4.084829957967138214e-01
4.058081773022544914e-01
4.058081773022544914e-01
4.058081773022544914e-01
4.107756973633931996e-01
4.107756973633931996e-01
4.004585403133358867e-01
4.004585403133358867e-01
4.004585403133358867e-01
4.042797095911349059e-01
4.042797095911349059e-01
4.046618265189148023e-01
4.046618265189148023e-01
4.046618265189148023e-01
3.966373710355368676e-01
3.966373710355368676e-01
3.958731371799770749e-01
3.958731371799770749e-01
3.958731371799770749e-01
3.855559801299197620e-01
3.855559801299197620e-01
3.924340848299579521e-01
3.924340848299579521e-01
3.924340848299579521e-01
3.951089033244172821e-01
3.951089033244172821e-01
3.928162017577378484e-01
3.928162017577378484e-01
3.928162017577378484e-01
3.947267863966373858e-01
3.947267863966373858e-01
3.867023309132594511e-01
3.867023309132594511e-01
3.867023309132594511e-01
3.874665647688192438e-01
3.874665647688192438e-01
3.954910202521971785e-01
3.954910202521971785e-01
3.954910202521971785e-01
3.779136415743217237e-01
3.779136415743217237e-01
3.844096293465800729e-01
3.844096293465800729e-01
3.844096293465800729e-01
3.889950324799388848e-01
3.889950324799388848e-01
3.702713030187237409e-01
3.702713030187237409e-01
3.870844478410393474e-01
3.870844478410393474e-01
3.870844478410393474e-01
3.733282384409629118e-01
3.733282384409629118e-01
3.748567061520825527e-01
3.748567061520825527e-01
3.748567061520825527e-01
3.687428353076040999e-01
3.687428353076040999e-01
3.775315246465418273e-01
3.775315246465418273e-01
3.775315246465418273e-01
3.775315246465418273e-01
3.775315246465418273e-01
3.695070691631639481e-01
3.695070691631639481e-01
3.695070691631639481e-01
3.679786014520443072e-01
3.679786014520443072e-01
3.702713030187237409e-01
3.702713030187237409e-01
3.702713030187237409e-01
3.752388230798624491e-01
3.752388230798624491e-01
3.687428353076040999e-01
3.687428353076040999e-01
3.687428353076040999e-01
3.653037829575850326e-01
3.653037829575850326e-01
3.603362628964463243e-01
3.603362628964463243e-01
3.603362628964463243e-01
3.446694688574704069e-01
3.446694688574704069e-01
3.515475735575085969e-01
3.515475735575085969e-01
3.515475735575085969e-01
3.458158196408100959e-01
3.458158196408100959e-01
3.549866259075277197e-01
3.549866259075277197e-01
3.549866259075277197e-01
3.393198318685518022e-01
3.393198318685518022e-01
3.416125334352311804e-01
3.416125334352311804e-01
3.416125334352311804e-01
3.324417271685135566e-01
3.324417271685135566e-01
3.374092472296522649e-01
3.374092472296522649e-01
3.374092472296522649e-01
3.339701948796331421e-01
3.339701948796331421e-01
3.305311425296140748e-01
3.305311425296140748e-01
3.305311425296140748e-01
3.312953763851738676e-01
3.312953763851738676e-01
3.297669086740542821e-01
3.297669086740542821e-01
3.297669086740542821e-01
3.225066870462361401e-01
3.225066870462361401e-01
3.160106992739778464e-01
3.160106992739778464e-01
3.160106992739778464e-01
3.068398930072602226e-01
3.068398930072602226e-01
3.156285823461979501e-01
3.156285823461979501e-01
3.156285823461979501e-01
3.076041268628200154e-01
3.076041268628200154e-01
3.083683607183798081e-01
3.083683607183798081e-01
3.083683607183798081e-01
3.156285823461979501e-01
3.156285823461979501e-01
3.053114252961406372e-01
3.053114252961406372e-01
3.053114252961406372e-01
3.098968284294994491e-01
3.098968284294994491e-01
3.095147115017195527e-01
3.095147115017195527e-01
3.095147115017195527e-01
2.927015666794038906e-01
2.927015666794038906e-01
3.076041268628200154e-01
3.076041268628200154e-01
3.076041268628200154e-01
3.076041268628200154e-01
3.076041268628200154e-01
2.869698127627053896e-01
2.869698127627053896e-01
2.869698127627053896e-01
3.003439052350019289e-01
3.003439052350019289e-01
2.900267481849446161e-01
2.900267481849446161e-01
2.900267481849446161e-01
2.972869698127627025e-01
2.972869698127627025e-01
2.969048528849828061e-01
2.969048528849828061e-01
2.969048528849828061e-01
2.804738249904470959e-01
2.804738249904470959e-01
2.892625143293847678e-01
2.892625143293847678e-01
2.892625143293847678e-01
2.842949942682460596e-01
2.842949942682460596e-01
2.927015666794038906e-01
2.927015666794038906e-01
2.927015666794038906e-01
2.747420710737485394e-01
2.747420710737485394e-01
2.854413450515858042e-01
2.854413450515858042e-01
2.854413450515858042e-01
2.919373328238440979e-01
2.919373328238440979e-01
2.858234619793657005e-01
2.858234619793657005e-01
2.858234619793657005e-01
2.911730989682843052e-01
2.911730989682843052e-01
2.835307604126862668e-01
2.835307604126862668e-01
2.835307604126862668e-01
2.774168895682078695e-01
2.774168895682078695e-01
2.743599541459686431e-01
2.743599541459686431e-01
2.743599541459686431e-01
2.743599541459686431e-01
2.743599541459686431e-01
2.781811234237676622e-01
2.781811234237676622e-01
2.781811234237676622e-01
2.831486434849063705e-01
2.831486434849063705e-01
2.793274742071073513e-01
2.793274742071073513e-01
2.793274742071073513e-01
2.865876958349254933e-01
2.865876958349254933e-01
2.835307604126862668e-01
2.835307604126862668e-01
2.835307604126862668e-01
2.797095911348873032e-01
2.797095911348873032e-01
2.758884218570882840e-01
2.758884218570882840e-01
2.758884218570882840e-01
2.770347726404279731e-01
2.770347726404279731e-01
2.770347726404279731e-01
2.770347726404279731e-01
2.770347726404279731e-01
2.865876958349254933e-01
2.865876958349254933e-01
2.800917080626671996e-01
2.800917080626671996e-01
2.800917080626671996e-01
2.686282002292701421e-01
2.686282002292701421e-01
2.701566679403897830e-01
2.701566679403897830e-01
2.701566679403897830e-01
2.628964463125716411e-01
2.628964463125716411e-01
2.858234619793657005e-01
2.858234619793657005e-01
2.858234619793657005e-01
2.755063049293083877e-01
2.755063049293083877e-01
2.709209017959495758e-01
2.709209017959495758e-01
2.709209017959495758e-01
2.663354986625907639e-01
2.663354986625907639e-01
2.789453572793274549e-01
2.789453572793274549e-01
2.789453572793274549e-01
2.716851356515093685e-01
2.716851356515093685e-01
2.785632403515475586e-01
2.785632403515475586e-01
2.785632403515475586e-01
2.644249140236912266e-01
2.644249140236912266e-01
2.739778372181887467e-01
2.739778372181887467e-01
2.739778372181887467e-01
2.556362246847535546e-01
2.556362246847535546e-01
2.713030187237294721e-01
2.713030187237294721e-01
2.728314864348490576e-01
2.728314864348490576e-01
2.728314864348490576e-01
2.613679786014520556e-01
2.613679786014520556e-01
2.541077569736339137e-01
2.541077569736339137e-01
2.541077569736339137e-01
2.602216278181123665e-01
2.602216278181123665e-01
2.564004585403133474e-01
2.564004585403133474e-01
2.564004585403133474e-01
2.586931601069927256e-01
2.586931601069927256e-01
2.529614061902942246e-01
2.529614061902942246e-01
2.529614061902942246e-01
2.483760030569354127e-01
2.483760030569354127e-01
2.479938861291555163e-01
2.479938861291555163e-01
2.479938861291555163e-01
2.472296522735957236e-01
2.472296522735957236e-01
2.579289262514329328e-01
2.579289262514329328e-01
2.579289262514329328e-01
2.586931601069927256e-01
2.586931601069927256e-01
2.418800152846771190e-01
2.418800152846771190e-01
2.418800152846771190e-01
2.418800152846771190e-01
2.418800152846771190e-01
2.346197936568590048e-01
2.346197936568590048e-01
2.346197936568590048e-01
2.479938861291555163e-01
2.479938861291555163e-01
2.510508215513947428e-01
2.510508215513947428e-01
2.510508215513947428e-01
2.376767290790982035e-01
2.376767290790982035e-01
2.376767290790982035e-01
2.376767290790982035e-01
2.376767290790982035e-01
2.388230798624378926e-01
2.388230798624378926e-01
2.334734428735192879e-01
2.334734428735192879e-01
2.334734428735192879e-01
2.277416889568207869e-01
2.277416889568207869e-01
2.323270920901795988e-01
2.323270920901795988e-01
2.323270920901795988e-01
2.376767290790982035e-01
2.376767290790982035e-01
2.193351165456629837e-01
2.193351165456629837e-01
2.193351165456629837e-01
2.227741688956820787e-01
2.227741688956820787e-01
2.265953381734810979e-01
2.265953381734810979e-01
2.265953381734810979e-01
2.307986243790599856e-01
2.307986243790599856e-01
2.254489873901413810e-01
2.254489873901413810e-01
2.254489873901413810e-01
2.254489873901413810e-01
2.254489873901413810e-01
2.200993504012227764e-01
2.200993504012227764e-01
2.200993504012227764e-01
2.254489873901413810e-01
2.254489873901413810e-01
2.040504394344669348e-01
2.040504394344669348e-01
2.040504394344669348e-01
2.067252579289262648e-01
2.067252579289262648e-01
2.067252579289262648e-01
2.067252579289262648e-01
2.067252579289262648e-01
2.147497134123041718e-01
2.147497134123041718e-01
2.158960641956438609e-01
2.158960641956438609e-01
2.158960641956438609e-01
1.998471532288880470e-01
1.998471532288880470e-01
2.105464272067252562e-01
2.105464272067252562e-01
2.105464272067252562e-01
2.124570118456247658e-01
2.124570118456247658e-01
2.109285441345051526e-01
2.109285441345051526e-01
2.109285441345051526e-01
2.032862055789071420e-01
2.032862055789071420e-01
2.051967902178066516e-01
2.051967902178066516e-01
2.051967902178066516e-01
2.097821933511654635e-01
2.097821933511654635e-01
2.002292701566679434e-01
2.002292701566679434e-01
2.002292701566679434e-01
2.048146732900267553e-01
2.048146732900267553e-01
2.032862055789071420e-01
2.032862055789071420e-01
2.032862055789071420e-01
1.880015284677111209e-01
1.880015284677111209e-01
1.937332823844096219e-01
1.937332823844096219e-01
1.937332823844096219e-01
1.880015284677111209e-01
1.880015284677111209e-01
1.895299961788307341e-01
1.895299961788307341e-01
1.895299961788307341e-01
1.983186855177684338e-01
1.983186855177684338e-01
1.818876576232326958e-01
1.818876576232326958e-01
1.818876576232326958e-01
1.964081008788689242e-01
1.964081008788689242e-01
1.853267099732518186e-01
1.853267099732518186e-01
1.853267099732518186e-01
1.807413068398930067e-01
1.807413068398930067e-01
1.776843714176538080e-01
1.776843714176538080e-01
1.776843714176538080e-01
1.929690485288498292e-01
1.929690485288498292e-01
1.857088269010317150e-01
1.857088269010317150e-01
1.857088269010317150e-01
1.876194115399312246e-01
1.876194115399312246e-01
1.799770729843332140e-01
1.799770729843332140e-01
1.799770729843332140e-01
1.803591899121131104e-01
1.803591899121131104e-01
1.757737867787542985e-01
1.757737867787542985e-01
1.757737867787542985e-01
1.761559037065341948e-01
1.761559037065341948e-01
1.849445930454719222e-01
1.849445930454719222e-01
1.849445930454719222e-01
1.685135651509361843e-01
1.685135651509361843e-01
1.669850974398165711e-01
1.669850974398165711e-01
1.669850974398165711e-01
1.818876576232326958e-01
1.818876576232326958e-01
1.765380206343140912e-01
1.765380206343140912e-01
1.765380206343140912e-01
1.681314482231562879e-01
1.681314482231562879e-01
1.734810852120748925e-01
1.734810852120748925e-01
1.734810852120748925e-01
1.792128391287733935e-01
1.792128391287733935e-01
1.807413068398930067e-01
1.807413068398930067e-01
1.807413068398930067e-01
1.620175773786778628e-01
1.620175773786778628e-01
1.688956820787160806e-01
1.688956820787160806e-01
1.688956820787160806e-01
1.715705005731753829e-01
1.715705005731753829e-01
1.685135651509361843e-01
1.685135651509361843e-01
1.685135651509361843e-01
1.784486052732136008e-01
1.784486052732136008e-01
1.631639281620175796e-01
1.631639281620175796e-01
1.631639281620175796e-01
1.589606419564386641e-01
1.589606419564386641e-01
1.589606419564386641e-01
1.589606419564386641e-01
1.589606419564386641e-01
1.727168513565150998e-01
1.727168513565150998e-01
1.688956820787160806e-01
1.688956820787160806e-01
1.700420328620557975e-01
1.700420328620557975e-01
1.700420328620557975e-01
1.562858234619793618e-01
1.562858234619793618e-01
1.566679403897592582e-01
1.566679403897592582e-01
1.566679403897592582e-01
1.685135651509361843e-01
1.685135651509361843e-01
1.616354604508979664e-01
1.616354604508979664e-01
1.616354604508979664e-01
1.688956820787160806e-01
1.688956820787160806e-01
1.555215896064195691e-01
1.555215896064195691e-01
1.555215896064195691e-01
1.566679403897592582e-01
1.566679403897592582e-01
1.539931218952999559e-01
1.539931218952999559e-01
1.539931218952999559e-01
1.539931218952999559e-01
1.539931218952999559e-01
1.669850974398165711e-01
1.669850974398165711e-01
1.669850974398165711e-01
1.539931218952999559e-01
1.539931218952999559e-01
1.547573557508597764e-01
1.547573557508597764e-01
1.547573557508597764e-01
1.623996943064577869e-01
1.623996943064577869e-01
1.666029805120366747e-01
1.666029805120366747e-01
1.666029805120366747e-01
1.635460450897974760e-01
1.635460450897974760e-01
1.623996943064577869e-01
1.623996943064577869e-01
1.623996943064577869e-01
1.623996943064577869e-01
1.623996943064577869e-01
1.662208635842567783e-01
1.662208635842567783e-01
1.662208635842567783e-01
1.730989682842949962e-01
1.730989682842949962e-01
1.581964081008788714e-01
1.581964081008788714e-01
1.581964081008788714e-01
1.635460450897974760e-01
1.635460450897974760e-01
1.524646541841803704e-01
1.524646541841803704e-01
1.524646541841803704e-01
1.494077187619411440e-01
1.494077187619411440e-01
1.505540695452808608e-01
1.505540695452808608e-01
1.505540695452808608e-01
1.578142911730989750e-01
1.578142911730989750e-01
1.688956820787160806e-01
1.688956820787160806e-01
1.688956820787160806e-01
1.490256018341612476e-01
1.490256018341612476e-01
1.532288880397401631e-01
1.532288880397401631e-01
1.532288880397401631e-01
1.601069927397783810e-01
1.601069927397783810e-01
1.585785250286587678e-01
1.585785250286587678e-01
1.585785250286587678e-01
1.662208635842567783e-01
1.662208635842567783e-01
1.597248758119984846e-01
1.597248758119984846e-01
1.597248758119984846e-01
1.639281620175773724e-01
1.639281620175773724e-01
1.471150171952617380e-01
1.471150171952617380e-01
1.471150171952617380e-01
1.696599159342759011e-01
1.696599159342759011e-01
1.593427588842185605e-01
1.593427588842185605e-01
1.593427588842185605e-01
1.585785250286587678e-01
1.585785250286587678e-01
1.589606419564386641e-01
1.589606419564386641e-01
1.589606419564386641e-01
1.639281620175773724e-01
1.639281620175773724e-01
1.604891096675582773e-01
1.604891096675582773e-01
1.604891096675582773e-01
1.509361864730607572e-01
1.509361864730607572e-01
1.612533435231180701e-01
1.612533435231180701e-01
1.612533435231180701e-01
1.551394726786396727e-01
1.551394726786396727e-01
1.547573557508597764e-01
1.547573557508597764e-01
1.547573557508597764e-01
1.524646541841803704e-01
1.524646541841803704e-01
1.559037065341994654e-01
1.559037065341994654e-01
1.559037065341994654e-01
1.555215896064195691e-01
1.555215896064195691e-01
1.501719526175009645e-01
1.501719526175009645e-01
1.501719526175009645e-01
1.494077187619411440e-01
1.494077187619411440e-01
1.505540695452808608e-01
1.505540695452808608e-01
1.505540695452808608e-01
1.471150171952617380e-01
1.471150171952617380e-01
1.448223156285823598e-01
1.448223156285823598e-01
1.448223156285823598e-01
1.448223156285823598e-01
1.448223156285823598e-01
1.539931218952999559e-01
1.539931218952999559e-01
1.539931218952999559e-01
1.494077187619411440e-01
1.494077187619411440e-01
1.463507833397019453e-01
1.463507833397019453e-01
1.463507833397019453e-01
1.440580817730225394e-01
1.440580817730225394e-01
1.494077187619411440e-01
1.494077187619411440e-01
1.494077187619411440e-01
1.425296140619029539e-01
1.425296140619029539e-01
1.402369124952235480e-01
1.402369124952235480e-01
1.402369124952235480e-01
1.536110049675200595e-01
1.536110049675200595e-01
1.467329002674818417e-01
1.467329002674818417e-01
1.467329002674818417e-01
1.513183034008406536e-01
1.513183034008406536e-01
1.486434849063813513e-01
1.486434849063813513e-01
1.486434849063813513e-01
1.333588077951853301e-01
1.333588077951853301e-01
1.333588077951853301e-01
1.333588077951853301e-01
1.333588077951853301e-01
1.333588077951853301e-01
1.333588077951853301e-01
1.467329002674818417e-01
1.467329002674818417e-01
1.467329002674818417e-01
1.532288880397401631e-01
1.532288880397401631e-01
1.398547955674436516e-01
1.398547955674436516e-01
1.398547955674436516e-01
1.322124570118456133e-01
1.322124570118456133e-01
1.452044325563622562e-01
1.452044325563622562e-01
1.452044325563622562e-01
1.383263278563240384e-01
1.383263278563240384e-01
1.322124570118456133e-01
1.322124570118456133e-01
1.322124570118456133e-01
1.543752388230798522e-01
1.543752388230798522e-01
1.425296140619029539e-01
1.425296140619029539e-01
1.425296140619029539e-01
1.306839893007260278e-01
1.306839893007260278e-01
1.413832632785632371e-01
1.413832632785632371e-01
1.413832632785632371e-01
1.452044325563622562e-01
1.452044325563622562e-01
1.547573557508597764e-01
1.547573557508597764e-01
1.410011463507833407e-01
1.410011463507833407e-01
1.410011463507833407e-01
1.490256018341612476e-01
1.490256018341612476e-01
1.597248758119984846e-01
1.597248758119984846e-01
1.597248758119984846e-01
1.513183034008406536e-01
1.513183034008406536e-01
1.593427588842185605e-01
1.593427588842185605e-01
1.593427588842185605e-01
1.547573557508597764e-01
1.547573557508597764e-01
1.551394726786396727e-01
1.551394726786396727e-01
1.551394726786396727e-01
1.601069927397783810e-01
1.601069927397783810e-01
1.807413068398930067e-01
1.807413068398930067e-01
1.807413068398930067e-01
1.765380206343140912e-01
1.765380206343140912e-01
1.914405808177302160e-01
1.914405808177302160e-01
1.914405808177302160e-01
1.983186855177684338e-01
1.983186855177684338e-01
1.948796331677493388e-01
1.948796331677493388e-01
1.948796331677493388e-01
2.113106610622850490e-01
2.113106610622850490e-01
2.158960641956438609e-01
2.158960641956438609e-01
2.158960641956438609e-01
2.304165074512800893e-01
2.304165074512800893e-01
2.361482613679785902e-01
2.361482613679785902e-01
2.361482613679785902e-01
2.468475353458158272e-01
2.468475353458158272e-01
2.621322124570118484e-01
2.621322124570118484e-01
2.621322124570118484e-01
2.506687046236148464e-01
2.506687046236148464e-01
2.609858616736721593e-01
2.609858616736721593e-01
2.609858616736721593e-01
2.693924340848299348e-01
2.693924340848299348e-01
2.907909820405044088e-01
2.907909820405044088e-01
2.907909820405044088e-01
2.865876958349254933e-01
2.865876958349254933e-01
3.041650745128008926e-01
3.041650745128008926e-01
3.041650745128008926e-01
3.068398930072602226e-01
3.068398930072602226e-01
3.148643484906381573e-01
3.148643484906381573e-01
3.148643484906381573e-01
3.247993886129155738e-01
3.247993886129155738e-01
3.244172716851356775e-01
3.244172716851356775e-01
3.244172716851356775e-01
3.381734810852120576e-01
3.381734810852120576e-01
3.393198318685518022e-01
3.393198318685518022e-01
3.393198318685518022e-01
3.458158196408100959e-01
3.458158196408100959e-01
3.534581581964080788e-01
3.534581581964080788e-01
3.534581581964080788e-01
3.465800534963698887e-01
3.465800534963698887e-01
3.546045089797478234e-01
3.546045089797478234e-01
3.546045089797478234e-01
3.565150936186473052e-01
3.565150936186473052e-01
3.786778754298815164e-01
3.786778754298815164e-01
3.786778754298815164e-01
3.729461215131830154e-01
3.729461215131830154e-01
3.729461215131830154e-01
3.729461215131830154e-01
3.729461215131830154e-01
3.855559801299197620e-01
3.855559801299197620e-01
3.782957585021016200e-01
3.782957585021016200e-01
3.782957585021016200e-01
3.763851738632021382e-01
3.763851738632021382e-01
3.897592663354986775e-01
3.897592663354986775e-01
3.897592663354986775e-01
4.019870080244554722e-01
4.019870080244554722e-01
3.836453954910202246e-01
3.836453954910202246e-01
3.836453954910202246e-01
3.817348108521207428e-01
3.817348108521207428e-01
3.943446694688574894e-01
3.943446694688574894e-01
3.943446694688574894e-01
3.905235001910584702e-01
3.905235001910584702e-01
3.920519679021780557e-01
3.920519679021780557e-01
3.920519679021780557e-01
4.004585403133358867e-01
4.004585403133358867e-01
3.989300726022163013e-01
3.989300726022163013e-01
3.989300726022163013e-01
4.012227741688956795e-01
4.012227741688956795e-01
3.981658387466564530e-01
3.981658387466564530e-01
3.981658387466564530e-01
4.058081773022544914e-01
4.058081773022544914e-01
3.977837218188765567e-01
3.977837218188765567e-01
3.977837218188765567e-01
3.966373710355368676e-01
3.966373710355368676e-01
3.928162017577378484e-01
3.928162017577378484e-01
3.928162017577378484e-01
3.939625525410775930e-01
3.939625525410775930e-01
3.989300726022163013e-01
3.989300726022163013e-01
3.989300726022163013e-01
4.023691249522353686e-01
4.023691249522353686e-01
3.905235001910584702e-01
3.905235001910584702e-01
3.905235001910584702e-01
4.046618265189148023e-01
4.046618265189148023e-01
4.019870080244554722e-01
4.019870080244554722e-01
4.019870080244554722e-01
4.069545280855941805e-01
4.069545280855941805e-01
4.004585403133358867e-01
4.004585403133358867e-01
4.004585403133358867e-01
4.008406572411157831e-01
4.008406572411157831e-01
3.874665647688192438e-01
3.874665647688192438e-01
3.874665647688192438e-01
3.851738632021398656e-01
3.851738632021398656e-01
3.905235001910584702e-01
3.905235001910584702e-01
3.905235001910584702e-01
3.909056171188383666e-01
3.909056171188383666e-01
3.928162017577378484e-01
3.928162017577378484e-01
3.928162017577378484e-01
4.019870080244554722e-01
4.019870080244554722e-01
3.832632785632403283e-01
3.832632785632403283e-01
3.832632785632403283e-01
4.004585403133358867e-01
4.004585403133358867e-01
3.794421092854413646e-01
3.794421092854413646e-01
3.794421092854413646e-01
3.867023309132594511e-01
3.867023309132594511e-01
3.832632785632403283e-01
3.832632785632403283e-01
3.832632785632403283e-01
3.779136415743217237e-01
3.779136415743217237e-01
3.763851738632021382e-01
3.763851738632021382e-01
3.763851738632021382e-01
3.878486816965991402e-01
3.878486816965991402e-01
3.794421092854413646e-01
3.794421092854413646e-01
3.847917462743599692e-01
3.847917462743599692e-01
3.847917462743599692e-01
3.702713030187237409e-01
3.702713030187237409e-01
3.763851738632021382e-01
3.763851738632021382e-01
3.763851738632021382e-01
3.656858998853649290e-01
3.656858998853649290e-01
3.695070691631639481e-01
3.695070691631639481e-01
3.695070691631639481e-01
3.691249522353840518e-01
3.691249522353840518e-01
3.706534199465036372e-01
3.706534199465036372e-01
3.706534199465036372e-01
3.611004967520061171e-01
3.611004967520061171e-01
3.633931983186854953e-01
3.633931983186854953e-01
3.633931983186854953e-01
3.618647306075659098e-01
3.618647306075659098e-01
3.733282384409629118e-01
3.733282384409629118e-01
3.733282384409629118e-01
3.530760412686281824e-01
3.530760412686281824e-01
3.641574321742453435e-01
3.641574321742453435e-01
3.641574321742453435e-01
3.611004967520061171e-01
3.611004967520061171e-01
3.549866259075277197e-01
3.549866259075277197e-01
3.549866259075277197e-01
3.607183798242262207e-01
3.607183798242262207e-01
3.534581581964080788e-01
3.534581581964080788e-01
3.534581581964080788e-01
3.454337027130301996e-01
3.454337027130301996e-01
3.454337027130301996e-01
3.454337027130301996e-01
3.454337027130301996e-01
3.397019487963316986e-01
3.397019487963316986e-01
3.366450133740924722e-01
3.366450133740924722e-01
3.366450133740924722e-01
3.335880779518532457e-01
3.335880779518532457e-01
3.343523118074130940e-01
3.343523118074130940e-01
3.343523118074130940e-01
3.270920901795949520e-01
3.270920901795949520e-01
3.309132594573939712e-01
3.309132594573939712e-01
3.309132594573939712e-01
3.179212839128773282e-01
3.179212839128773282e-01
3.133358807795185164e-01
3.133358807795185164e-01
3.133358807795185164e-01
3.293847917462743857e-01
3.293847917462743857e-01
3.114252961406190345e-01
3.114252961406190345e-01
3.114252961406190345e-01
3.079862437905999117e-01
3.079862437905999117e-01
3.095147115017195527e-01
3.095147115017195527e-01
3.095147115017195527e-01
3.144822315628582610e-01
3.144822315628582610e-01
2.976690867405425989e-01
