2.846771111960260114e-01
2.583110431792128292e-01
2.583110431792128292e-01
2.583110431792128292e-01
2.586931601069927256e-01
2.586931601069927256e-01
2.590752770347726219e-01
2.590752770347726219e-01
2.590752770347726219e-01
2.800917080626671996e-01
2.800917080626671996e-01
2.502865876958349500e-01
2.502865876958349500e-01
2.502865876958349500e-01
2.670997325181505566e-01
2.670997325181505566e-01
2.713030187237294721e-01
2.713030187237294721e-01
2.418800152846771190e-01
2.418800152846771190e-01
2.418800152846771190e-01
2.422621322124570153e-01
2.422621322124570153e-01
2.449369507069163177e-01
2.449369507069163177e-01
2.449369507069163177e-01
2.644249140236912266e-01
2.644249140236912266e-01
2.430263660680168081e-01
2.430263660680168081e-01
2.430263660680168081e-01
2.392051967902178167e-01
2.392051967902178167e-01
2.636606801681314338e-01
2.636606801681314338e-01
2.636606801681314338e-01
2.521971723347344319e-01
2.521971723347344319e-01
2.300343905235001929e-01
2.300343905235001929e-01
2.300343905235001929e-01
2.583110431792128292e-01
2.583110431792128292e-01
2.330913259457393916e-01
2.330913259457393916e-01
2.330913259457393916e-01
2.311807413068398820e-01
2.311807413068398820e-01
2.602216278181123665e-01
2.602216278181123665e-01
2.602216278181123665e-01
2.544898739014138100e-01
2.544898739014138100e-01
2.567825754680932437e-01
2.567825754680932437e-01
2.567825754680932437e-01
2.464654184180359309e-01
2.464654184180359309e-01
2.403515475735575058e-01
2.403515475735575058e-01
2.403515475735575058e-01
2.231562858234619751e-01
2.231562858234619751e-01
2.269774551012609942e-01
2.269774551012609942e-01
2.269774551012609942e-01
2.384409629346579962e-01
2.384409629346579962e-01
2.449369507069163177e-01
2.449369507069163177e-01
2.449369507069163177e-01
2.457011845624761104e-01
2.457011845624761104e-01
2.265953381734810979e-01
2.265953381734810979e-01
2.265953381734810979e-01
2.216278181123423896e-01
2.216278181123423896e-01
2.334734428735192879e-01
2.334734428735192879e-01
2.334734428735192879e-01
2.243026366068016919e-01
2.243026366068016919e-01
2.239205196790217678e-01
2.239205196790217678e-01
2.239205196790217678e-01
2.243026366068016919e-01
2.243026366068016919e-01
2.223920519679021823e-01
2.223920519679021823e-01
2.223920519679021823e-01
2.231562858234619751e-01
2.231562858234619751e-01
2.269774551012609942e-01
2.269774551012609942e-01
2.269774551012609942e-01
2.300343905235001929e-01
2.300343905235001929e-01
2.212457011845624655e-01
2.212457011845624655e-01
2.212457011845624655e-01
2.491402369124952332e-01
2.491402369124952332e-01
2.250668704623614846e-01
2.250668704623614846e-01
2.250668704623614846e-01
2.399694306457776094e-01
2.399694306457776094e-01
2.231562858234619751e-01
2.231562858234619751e-01
2.231562858234619751e-01
2.250668704623614846e-01
2.250668704623614846e-01
2.285059228123805797e-01
2.285059228123805797e-01
2.285059228123805797e-01
2.265953381734810979e-01
2.265953381734810979e-01
2.315628582346198061e-01
2.315628582346198061e-01
2.315628582346198061e-01
2.407336645013374021e-01
2.407336645013374021e-01
2.311807413068398820e-01
2.311807413068398820e-01
2.311807413068398820e-01
2.231562858234619751e-01
2.231562858234619751e-01
2.235384027512418714e-01
2.235384027512418714e-01
2.235384027512418714e-01
2.243026366068016919e-01
2.243026366068016919e-01
2.300343905235001929e-01
2.300343905235001929e-01
2.300343905235001929e-01
2.208635842567825691e-01
2.208635842567825691e-01
2.296522735957202965e-01
2.296522735957202965e-01
2.296522735957202965e-01
2.403515475735575058e-01
2.403515475735575058e-01
2.178066488345433704e-01
2.178066488345433704e-01
2.178066488345433704e-01
2.330913259457393916e-01
2.330913259457393916e-01
2.353840275124187975e-01
2.353840275124187975e-01
2.353840275124187975e-01
2.162781811234237572e-01
2.162781811234237572e-01
2.300343905235001929e-01
2.300343905235001929e-01
2.300343905235001929e-01
2.361482613679785902e-01
2.361482613679785902e-01
2.311807413068398820e-01
2.311807413068398820e-01
2.311807413068398820e-01
2.346197936568590048e-01
2.346197936568590048e-01
2.380588460068780998e-01
2.380588460068780998e-01
2.380588460068780998e-01
2.147497134123041718e-01
2.147497134123041718e-01
2.258311043179212774e-01
2.258311043179212774e-01
2.258311043179212774e-01
2.384409629346579962e-01
2.384409629346579962e-01
2.147497134123041718e-01
2.147497134123041718e-01
2.147497134123041718e-01
2.411157814291172985e-01
2.411157814291172985e-01
2.124570118456247658e-01
2.124570118456247658e-01
2.124570118456247658e-01
2.204814673290026728e-01
2.204814673290026728e-01
2.086358425678257467e-01
2.086358425678257467e-01
2.086358425678257467e-01
2.181887657623232668e-01
2.181887657623232668e-01
2.147497134123041718e-01
2.147497134123041718e-01
2.147497134123041718e-01
2.151318303400840681e-01
2.151318303400840681e-01
2.132212457011845586e-01
2.132212457011845586e-01
2.132212457011845586e-01
2.315628582346198061e-01
2.315628582346198061e-01
2.048146732900267553e-01
2.048146732900267553e-01
2.048146732900267553e-01
2.036683225066870384e-01
2.036683225066870384e-01
2.319449751623997025e-01
2.319449751623997025e-01
2.319449751623997025e-01
2.017577378677875566e-01
2.017577378677875566e-01
2.101643102789453599e-01
2.101643102789453599e-01
2.101643102789453599e-01
2.136033626289644549e-01
2.136033626289644549e-01
2.243026366068016919e-01
2.243026366068016919e-01
2.243026366068016919e-01
1.975544516622086411e-01
1.975544516622086411e-01
2.143675964845242754e-01
2.143675964845242754e-01
2.013756209400076325e-01
2.013756209400076325e-01
2.013756209400076325e-01
2.162781811234237572e-01
2.162781811234237572e-01
2.220099350401222860e-01
2.220099350401222860e-01
2.220099350401222860e-01
2.120748949178448695e-01
2.120748949178448695e-01
2.078716087122659539e-01
2.078716087122659539e-01
2.078716087122659539e-01
1.983186855177684338e-01
1.983186855177684338e-01
2.174245319067634741e-01
2.174245319067634741e-01
2.174245319067634741e-01
2.128391287734046622e-01
2.128391287734046622e-01
1.956438670233091315e-01
1.956438670233091315e-01
1.956438670233091315e-01
1.880015284677111209e-01
1.880015284677111209e-01
2.017577378677875566e-01
2.017577378677875566e-01
2.017577378677875566e-01
1.883836453954910173e-01
1.883836453954910173e-01
2.097821933511654635e-01
2.097821933511654635e-01
2.097821933511654635e-01
1.849445930454719222e-01
1.849445930454719222e-01
2.009935040122277361e-01
2.009935040122277361e-01
2.009935040122277361e-01
2.017577378677875566e-01
2.017577378677875566e-01
2.155139472678639645e-01
2.155139472678639645e-01
2.155139472678639645e-01
2.048146732900267553e-01
2.048146732900267553e-01
2.113106610622850490e-01
2.113106610622850490e-01
2.113106610622850490e-01
2.025219717233473493e-01
2.025219717233473493e-01
1.807413068398930067e-01
1.807413068398930067e-01
1.807413068398930067e-01
1.880015284677111209e-01
1.880015284677111209e-01
1.822697745510126199e-01
1.822697745510126199e-01
1.822697745510126199e-01
1.841803591899121018e-01
1.841803591899121018e-01
1.795949560565533176e-01
1.795949560565533176e-01
1.795949560565533176e-01
1.803591899121131104e-01
1.803591899121131104e-01
2.036683225066870384e-01
2.036683225066870384e-01
2.036683225066870384e-01
2.009935040122277361e-01
2.009935040122277361e-01
1.757737867787542985e-01
1.757737867787542985e-01
1.757737867787542985e-01
1.750095529231945057e-01
1.750095529231945057e-01
1.730989682842949962e-01
1.730989682842949962e-01
1.730989682842949962e-01
1.792128391287733935e-01
1.792128391287733935e-01
1.746274359954146094e-01
1.746274359954146094e-01
1.746274359954146094e-01
1.998471532288880470e-01
1.998471532288880470e-01
1.960259839510890278e-01
1.960259839510890278e-01
1.960259839510890278e-01
1.914405808177302160e-01
1.914405808177302160e-01
1.700420328620557975e-01
1.700420328620557975e-01
1.700420328620557975e-01
1.730989682842949962e-01
1.730989682842949962e-01
1.857088269010317150e-01
1.857088269010317150e-01
1.857088269010317150e-01
1.826518914787925163e-01
1.826518914787925163e-01
1.635460450897974760e-01
1.635460450897974760e-01
1.635460450897974760e-01
1.868551776843714041e-01
1.868551776843714041e-01
1.837982422621322054e-01
1.837982422621322054e-01
1.837982422621322054e-01
1.826518914787925163e-01
1.826518914787925163e-01
1.631639281620175796e-01
1.631639281620175796e-01
1.631639281620175796e-01
1.868551776843714041e-01
1.868551776843714041e-01
1.570500573175391545e-01
1.570500573175391545e-01
1.570500573175391545e-01
1.780664883454337044e-01
1.780664883454337044e-01
1.883836453954910173e-01
1.883836453954910173e-01
1.883836453954910173e-01
1.792128391287733935e-01
1.792128391287733935e-01
1.864730607565915077e-01
1.864730607565915077e-01
1.864730607565915077e-01
1.761559037065341948e-01
1.761559037065341948e-01
1.795949560565533176e-01
1.795949560565533176e-01
1.795949560565533176e-01
1.818876576232326958e-01
1.818876576232326958e-01
1.547573557508597764e-01
1.547573557508597764e-01
1.547573557508597764e-01
1.815055406954527994e-01
1.815055406954527994e-01
1.807413068398930067e-01
1.807413068398930067e-01
1.807413068398930067e-01
1.815055406954527994e-01
1.815055406954527994e-01
1.543752388230798522e-01
1.543752388230798522e-01
1.543752388230798522e-01
1.807413068398930067e-01
1.807413068398930067e-01
1.773022544898739117e-01
1.773022544898739117e-01
1.773022544898739117e-01
1.547573557508597764e-01
1.547573557508597764e-01
1.669850974398165711e-01
1.669850974398165711e-01
1.669850974398165711e-01
1.727168513565150998e-01
1.727168513565150998e-01
1.517004203286205499e-01
1.517004203286205499e-01
1.517004203286205499e-01
1.746274359954146094e-01
1.746274359954146094e-01
1.578142911730989750e-01
1.578142911730989750e-01
1.578142911730989750e-01
1.486434849063813513e-01
1.486434849063813513e-01
1.635460450897974760e-01
1.635460450897974760e-01
1.635460450897974760e-01
1.551394726786396727e-01
1.551394726786396727e-01
1.566679403897592582e-01
1.566679403897592582e-01
1.566679403897592582e-01
1.593427588842185605e-01
1.593427588842185605e-01
1.715705005731753829e-01
1.715705005731753829e-01
1.715705005731753829e-01
1.455865494841421526e-01
1.455865494841421526e-01
1.574321742453190787e-01
1.574321742453190787e-01
1.574321742453190787e-01
1.685135651509361843e-01
1.685135651509361843e-01
1.616354604508979664e-01
1.616354604508979664e-01
1.616354604508979664e-01
1.547573557508597764e-01
1.547573557508597764e-01
1.688956820787160806e-01
1.688956820787160806e-01
1.688956820787160806e-01
1.654566297286969856e-01
1.654566297286969856e-01
1.383263278563240384e-01
1.383263278563240384e-01
1.383263278563240384e-01
1.471150171952617380e-01
1.471150171952617380e-01
1.539931218952999559e-01
1.539931218952999559e-01
1.539931218952999559e-01
1.539931218952999559e-01
1.539931218952999559e-01
1.658387466564768820e-01
1.658387466564768820e-01
1.398547955674436516e-01
1.398547955674436516e-01
1.398547955674436516e-01
1.383263278563240384e-01
1.383263278563240384e-01
1.421474971341230298e-01
1.421474971341230298e-01
1.421474971341230298e-01
1.627818112342376833e-01
1.627818112342376833e-01
1.360336262896446324e-01
1.360336262896446324e-01
1.360336262896446324e-01
1.494077187619411440e-01
1.494077187619411440e-01
1.547573557508597764e-01
1.547573557508597764e-01
1.547573557508597764e-01
1.574321742453190787e-01
1.574321742453190787e-01
1.643102789453572687e-01
1.643102789453572687e-01
1.643102789453572687e-01
1.555215896064195691e-01
1.555215896064195691e-01
1.379442109285441420e-01
1.379442109285441420e-01
1.379442109285441420e-01
1.497898356897210681e-01
1.497898356897210681e-01
1.474971341230416622e-01
1.474971341230416622e-01
1.474971341230416622e-01
1.547573557508597764e-01
1.547573557508597764e-01
1.413832632785632371e-01
1.413832632785632371e-01
1.413832632785632371e-01
1.345051585785250192e-01
1.345051585785250192e-01
1.608712265953381737e-01
1.608712265953381737e-01
1.608712265953381737e-01
1.314482231562858205e-01
1.314482231562858205e-01
1.513183034008406536e-01
1.513183034008406536e-01
1.513183034008406536e-01
1.452044325563622562e-01
1.452044325563622562e-01
1.444401987008024357e-01
1.444401987008024357e-01
1.444401987008024357e-01
1.517004203286205499e-01
1.517004203286205499e-01
1.486434849063813513e-01
1.486434849063813513e-01
1.486434849063813513e-01
1.318303400840657169e-01
1.318303400840657169e-01
1.459686664119220489e-01
1.459686664119220489e-01
1.459686664119220489e-01
1.322124570118456133e-01
1.322124570118456133e-01
1.532288880397401631e-01
1.532288880397401631e-01
1.532288880397401631e-01
1.581964081008788714e-01
1.581964081008788714e-01
1.341230416507451229e-01
1.341230416507451229e-01
1.341230416507451229e-01
1.318303400840657169e-01
1.318303400840657169e-01
1.387084447841039347e-01
1.387084447841039347e-01
1.387084447841039347e-01
1.356515093618647361e-01
1.356515093618647361e-01
1.524646541841803704e-01
1.524646541841803704e-01
1.524646541841803704e-01
1.264807030951471123e-01
1.264807030951471123e-01
1.245701184562476166e-01
1.245701184562476166e-01
1.245701184562476166e-01
1.398547955674436516e-01
1.398547955674436516e-01
1.314482231562858205e-01
1.314482231562858205e-01
1.314482231562858205e-01
1.559037065341994654e-01
1.559037065341994654e-01
1.440580817730225394e-01
1.440580817730225394e-01
1.440580817730225394e-01
1.383263278563240384e-01
1.383263278563240384e-01
1.528467711119602668e-01
1.528467711119602668e-01
1.528467711119602668e-01
1.486434849063813513e-01
1.486434849063813513e-01
1.444401987008024357e-01
1.444401987008024357e-01
1.444401987008024357e-01
1.356515093618647361e-01
1.356515093618647361e-01
1.287734046618265182e-01
1.287734046618265182e-01
1.287734046618265182e-01
1.390905617118838311e-01
1.390905617118838311e-01
1.505540695452808608e-01
1.505540695452808608e-01
1.505540695452808608e-01
1.234237676729079136e-01
1.234237676729079136e-01
1.524646541841803704e-01
1.524646541841803704e-01
1.524646541841803704e-01
1.463507833397019453e-01
1.463507833397019453e-01
1.299197554451662073e-01
1.299197554451662073e-01
1.299197554451662073e-01
1.234237676729079136e-01
1.234237676729079136e-01
1.299197554451662073e-01
1.299197554451662073e-01
1.299197554451662073e-01
1.268628200229270087e-01
1.268628200229270087e-01
1.367978601452044252e-01
1.367978601452044252e-01
1.367978601452044252e-01
1.241880015284677063e-01
1.241880015284677063e-01
1.364157432174245288e-01
1.364157432174245288e-01
1.364157432174245288e-01
1.520825372564004463e-01
1.520825372564004463e-01
1.413832632785632371e-01
1.413832632785632371e-01
1.413832632785632371e-01
1.520825372564004463e-01
1.520825372564004463e-01
1.536110049675200595e-01
1.536110049675200595e-01
1.536110049675200595e-01
1.264807030951471123e-01
1.264807030951471123e-01
1.348872755063049156e-01
1.348872755063049156e-01
1.348872755063049156e-01
1.509361864730607572e-01
1.509361864730607572e-01
1.566679403897592582e-01
1.566679403897592582e-01
1.566679403897592582e-01
1.333588077951853301e-01
1.333588077951853301e-01
1.432938479174627466e-01
1.432938479174627466e-01
1.432938479174627466e-01
1.394726786396637275e-01
1.394726786396637275e-01
1.696599159342759011e-01
1.696599159342759011e-01
1.696599159342759011e-01
1.597248758119984846e-01
1.597248758119984846e-01
1.597248758119984846e-01
1.597248758119984846e-01
1.597248758119984846e-01
1.559037065341994654e-01
1.559037065341994654e-01
1.601069927397783810e-01
1.601069927397783810e-01
1.601069927397783810e-01
1.807413068398930067e-01
1.807413068398930067e-01
1.627818112342376833e-01
1.627818112342376833e-01
1.627818112342376833e-01
1.826518914787925163e-01
1.826518914787925163e-01
1.753916698509744021e-01
1.753916698509744021e-01
1.753916698509744021e-01
1.746274359954146094e-01
1.746274359954146094e-01
1.788307222009934971e-01
1.788307222009934971e-01
1.822697745510126199e-01
1.822697745510126199e-01
1.822697745510126199e-01
1.960259839510890278e-01
1.960259839510890278e-01
2.239205196790217678e-01
2.239205196790217678e-01
2.239205196790217678e-01
2.292701566679404002e-01
2.292701566679404002e-01
2.094000764233855671e-01
2.094000764233855671e-01
2.094000764233855671e-01
2.418800152846771190e-01
2.418800152846771190e-01
2.246847535345815883e-01
2.246847535345815883e-01
2.246847535345815883e-01
2.506687046236148464e-01
2.506687046236148464e-01
2.449369507069163177e-01
2.449369507069163177e-01
2.449369507069163177e-01
2.422621322124570153e-01
2.422621322124570153e-01
2.690103171570500384e-01
2.690103171570500384e-01
2.690103171570500384e-01
2.667176155903706603e-01
2.667176155903706603e-01
2.613679786014520556e-01
2.613679786014520556e-01
2.613679786014520556e-01
2.957585021016431170e-01
2.957585021016431170e-01
2.758884218570882840e-01
2.758884218570882840e-01
2.758884218570882840e-01
2.850592281238059078e-01
2.850592281238059078e-01
3.141001146350783091e-01
3.141001146350783091e-01
3.141001146350783091e-01
2.999617883072220326e-01
2.999617883072220326e-01
2.980512036683224952e-01
2.980512036683224952e-01
2.980512036683224952e-01
3.255636224684753666e-01
3.255636224684753666e-01
3.152464654184180537e-01
3.152464654184180537e-01
3.152464654184180537e-01
3.179212839128773282e-01
3.179212839128773282e-01
3.286205578907145375e-01
3.286205578907145375e-01
3.286205578907145375e-01
3.305311425296140748e-01
3.305311425296140748e-01
3.607183798242262207e-01
3.607183798242262207e-01
3.607183798242262207e-01
3.645395491020252399e-01
3.645395491020252399e-01
3.496369889186091151e-01
3.496369889186091151e-01
3.496369889186091151e-01
3.714176538020634299e-01
3.714176538020634299e-01
3.798242262132212610e-01
3.798242262132212610e-01
3.798242262132212610e-01
3.664501337409247217e-01
3.664501337409247217e-01
3.584256782575467870e-01
3.584256782575467870e-01
3.584256782575467870e-01
3.935804356132976967e-01
3.935804356132976967e-01
3.870844478410393474e-01
3.870844478410393474e-01
3.870844478410393474e-01
3.695070691631639481e-01
3.695070691631639481e-01
3.782957585021016200e-01
3.782957585021016200e-01
3.782957585021016200e-01
3.821169277799006392e-01
3.821169277799006392e-01
4.023691249522353686e-01
4.023691249522353686e-01
4.023691249522353686e-01
3.905235001910584702e-01
3.905235001910584702e-01
3.939625525410775930e-01
3.939625525410775930e-01
3.939625525410775930e-01
3.775315246465418273e-01
3.775315246465418273e-01
3.855559801299197620e-01
3.855559801299197620e-01
3.855559801299197620e-01
4.073366450133740768e-01
4.073366450133740768e-01
4.061902942300343877e-01
4.061902942300343877e-01
4.061902942300343877e-01
3.855559801299197620e-01
3.855559801299197620e-01
4.012227741688956795e-01
4.012227741688956795e-01
4.012227741688956795e-01
4.054260603744745950e-01
4.054260603744745950e-01
4.096293465800535105e-01
4.096293465800535105e-01
4.096293465800535105e-01
4.126862820022926814e-01
4.126862820022926814e-01
4.065724111578142841e-01
4.065724111578142841e-01
4.065724111578142841e-01
3.939625525410775930e-01
3.939625525410775930e-01
3.993121895299961976e-01
3.993121895299961976e-01
3.993121895299961976e-01
3.935804356132976967e-01
3.935804356132976967e-01
4.000764233855559904e-01
4.000764233855559904e-01
4.000764233855559904e-01
3.836453954910202246e-01
3.836453954910202246e-01
4.100114635078334069e-01
4.100114635078334069e-01
4.100114635078334069e-01
4.023691249522353686e-01
4.023691249522353686e-01
3.836453954910202246e-01
3.836453954910202246e-01
3.836453954910202246e-01
4.061902942300343877e-01
4.061902942300343877e-01
3.901413832632785739e-01
3.901413832632785739e-01
3.901413832632785739e-01
3.824990447076805355e-01
3.824990447076805355e-01
3.878486816965991402e-01
3.878486816965991402e-01
3.878486816965991402e-01
3.809705769965609501e-01
3.809705769965609501e-01
4.073366450133740768e-01
4.073366450133740768e-01
4.073366450133740768e-01
3.844096293465800729e-01
3.844096293465800729e-01
3.840275124188001765e-01
3.840275124188001765e-01
3.840275124188001765e-01
4.008406572411157831e-01
4.008406572411157831e-01
4.027512418800152649e-01
4.027512418800152649e-01
4.027512418800152649e-01
3.870844478410393474e-01
3.870844478410393474e-01
3.985479556744364049e-01
3.985479556744364049e-01
3.985479556744364049e-01
3.717997707298433263e-01
3.717997707298433263e-01
3.851738632021398656e-01
3.851738632021398656e-01
3.851738632021398656e-01
3.775315246465418273e-01
3.775315246465418273e-01
3.710355368742835336e-01
3.710355368742835336e-01
3.710355368742835336e-01
3.878486816965991402e-01
3.878486816965991402e-01
3.931983186855177448e-01
3.931983186855177448e-01
3.931983186855177448e-01
3.767672907909820346e-01
3.767672907909820346e-01
3.935804356132976967e-01
3.935804356132976967e-01
3.935804356132976967e-01
3.889950324799388848e-01
3.889950324799388848e-01
3.714176538020634299e-01
3.714176538020634299e-01
3.714176538020634299e-01
3.798242262132212610e-01
3.798242262132212610e-01
3.542223920519679270e-01
3.542223920519679270e-01
3.844096293465800729e-01
3.844096293465800729e-01
3.844096293465800729e-01
3.538402751241879751e-01
3.538402751241879751e-01
3.729461215131830154e-01
3.729461215131830154e-01
3.729461215131830154e-01
3.714176538020634299e-01
3.714176538020634299e-01
3.504012227741689078e-01
3.504012227741689078e-01
3.504012227741689078e-01
3.507833397019488042e-01
3.507833397019488042e-01
3.435231180741306622e-01
3.435231180741306622e-01
3.435231180741306622e-01
3.588077951853266834e-01
3.588077951853266834e-01
3.370271303018723685e-01
3.370271303018723685e-01
3.370271303018723685e-01
3.397019487963316986e-01
3.397019487963316986e-01
3.347344287351929903e-01
3.347344287351929903e-01
3.347344287351929903e-01
3.309132594573939712e-01
3.309132594573939712e-01
3.435231180741306622e-01
3.435231180741306622e-01
3.435231180741306622e-01
3.374092472296522649e-01
3.374092472296522649e-01
3.209782193351165547e-01
3.209782193351165547e-01
3.209782193351165547e-01
3.431410011463507659e-01
3.431410011463507659e-01
3.439052350019105586e-01
3.439052350019105586e-01
3.439052350019105586e-01
3.427588842185708695e-01
3.427588842185708695e-01
3.427588842185708695e-01
3.427588842185708695e-01
3.427588842185708695e-01
3.377913641574321613e-01
3.377913641574321613e-01
3.362628964463125758e-01
3.362628964463125758e-01
3.362628964463125758e-01
3.007260221627818253e-01
3.007260221627818253e-01
3.278563240351547448e-01
3.278563240351547448e-01
3.278563240351547448e-01
3.022544898739014108e-01
3.022544898739014108e-01
2.969048528849828061e-01
2.969048528849828061e-01
2.969048528849828061e-01
3.064577760794803263e-01
3.064577760794803263e-01
2.904088651127245124e-01
2.904088651127245124e-01
2.904088651127245124e-01
3.079862437905999117e-01
3.079862437905999117e-01
2.865876958349254933e-01
2.865876958349254933e-01
2.865876958349254933e-01
2.842949942682460596e-01
2.842949942682460596e-01
2.930836836071837870e-01
2.930836836071837870e-01
2.930836836071837870e-01
2.808559419182269923e-01
2.808559419182269923e-01
2.800917080626671996e-01
2.800917080626671996e-01
2.800917080626671996e-01
2.755063049293083877e-01
2.755063049293083877e-01
2.904088651127245124e-01
2.904088651127245124e-01
2.904088651127245124e-01
2.701566679403897830e-01
2.701566679403897830e-01
2.957585021016431170e-01
2.957585021016431170e-01
2.957585021016431170e-01
2.755063049293083877e-01
2.755063049293083877e-01
2.713030187237294721e-01
2.713030187237294721e-01
2.713030187237294721e-01
2.862055789071455969e-01
2.862055789071455969e-01
2.621322124570118484e-01
2.621322124570118484e-01
2.621322124570118484e-01
2.713030187237294721e-01
2.713030187237294721e-01
2.537256400458540173e-01
2.537256400458540173e-01
2.537256400458540173e-01
2.548719908291937064e-01
2.548719908291937064e-01
2.617500955292319520e-01
2.617500955292319520e-01
2.617500955292319520e-01
2.667176155903706603e-01
2.667176155903706603e-01
2.464654184180359309e-01
2.464654184180359309e-01
2.464654184180359309e-01
2.732136033626289540e-01
2.732136033626289540e-01
2.755063049293083877e-01
2.755063049293083877e-01
2.755063049293083877e-01
2.659533817348108675e-01
2.659533817348108675e-01
2.544898739014138100e-01
2.544898739014138100e-01
2.544898739014138100e-01
2.418800152846771190e-01
2.418800152846771190e-01
2.460833014902560067e-01
2.460833014902560067e-01
2.460833014902560067e-01
2.667176155903706603e-01
2.667176155903706603e-01
2.678639663737103493e-01
2.678639663737103493e-01
2.678639663737103493e-01
2.621322124570118484e-01
2.621322124570118484e-01
2.472296522735957236e-01
2.472296522735957236e-01
2.472296522735957236e-01
2.628964463125716411e-01
2.628964463125716411e-01
2.506687046236148464e-01
2.506687046236148464e-01
2.506687046236148464e-01
2.476117692013756200e-01
2.476117692013756200e-01
2.437905999235766008e-01
2.437905999235766008e-01
2.437905999235766008e-01
2.617500955292319520e-01
2.617500955292319520e-01
2.327092090179594952e-01
2.327092090179594952e-01
2.327092090179594952e-01
2.434084829957967044e-01
2.434084829957967044e-01
2.357661444401986939e-01
2.357661444401986939e-01
2.357661444401986939e-01
2.365303782957585144e-01
2.365303782957585144e-01
2.453190676346962140e-01
2.453190676346962140e-01
2.453190676346962140e-01
2.644249140236912266e-01
2.644249140236912266e-01
2.434084829957967044e-01
2.434084829957967044e-01
2.434084829957967044e-01
2.583110431792128292e-01
2.583110431792128292e-01
2.506687046236148464e-01
2.506687046236148464e-01
2.506687046236148464e-01
2.361482613679785902e-01
2.361482613679785902e-01
2.632785632403515375e-01
2.632785632403515375e-01
2.632785632403515375e-01
2.384409629346579962e-01
2.384409629346579962e-01
2.678639663737103493e-01
2.678639663737103493e-01
2.678639663737103493e-01
2.483760030569354127e-01
2.483760030569354127e-01
2.571646923958731401e-01
2.571646923958731401e-01
2.571646923958731401e-01
2.659533817348108675e-01
2.659533817348108675e-01
2.640427970959113302e-01
2.640427970959113302e-01
2.640427970959113302e-01
2.567825754680932437e-01
2.567825754680932437e-01
2.693924340848299348e-01
2.693924340848299348e-01
2.693924340848299348e-01
2.548719908291937064e-01
2.548719908291937064e-01
2.441727168513565249e-01
2.441727168513565249e-01
2.659533817348108675e-01
2.659533817348108675e-01
2.659533817348108675e-01
2.457011845624761104e-01
2.457011845624761104e-01
2.434084829957967044e-01
2.434084829957967044e-01
2.434084829957967044e-01
2.556362246847535546e-01
2.556362246847535546e-01
2.521971723347344319e-01
2.521971723347344319e-01
2.521971723347344319e-01
2.777990064959877659e-01
2.777990064959877659e-01
2.472296522735957236e-01
2.472296522735957236e-01
2.472296522735957236e-01
2.713030187237294721e-01
2.713030187237294721e-01
2.476117692013756200e-01
2.476117692013756200e-01
2.476117692013756200e-01
2.797095911348873032e-01
2.797095911348873032e-01
2.556362246847535546e-01
2.556362246847535546e-01
2.556362246847535546e-01
2.716851356515093685e-01
2.716851356515093685e-01
2.777990064959877659e-01
2.777990064959877659e-01
2.777990064959877659e-01
2.713030187237294721e-01
2.713030187237294721e-01
2.789453572793274549e-01
2.789453572793274549e-01
2.789453572793274549e-01
2.506687046236148464e-01
2.506687046236148464e-01
2.506687046236148464e-01
2.506687046236148464e-01
2.506687046236148464e-01
2.457011845624761104e-01
2.457011845624761104e-01
2.628964463125716411e-01
2.628964463125716411e-01
2.628964463125716411e-01
2.510508215513947428e-01
2.510508215513947428e-01
2.586931601069927256e-01
2.586931601069927256e-01
2.586931601069927256e-01
2.755063049293083877e-01
2.755063049293083877e-01
2.567825754680932437e-01
2.567825754680932437e-01
2.567825754680932437e-01
2.564004585403133474e-01
2.564004585403133474e-01
2.552541077569736583e-01
2.552541077569736583e-01
2.552541077569736583e-01
2.564004585403133474e-01
2.564004585403133474e-01
2.724493695070691612e-01
2.724493695070691612e-01
2.724493695070691612e-01
2.521971723347344319e-01
2.521971723347344319e-01
2.735957202904088503e-01
2.735957202904088503e-01
2.735957202904088503e-01
2.437905999235766008e-01
2.437905999235766008e-01
2.506687046236148464e-01
2.506687046236148464e-01
2.506687046236148464e-01
2.453190676346962140e-01
2.453190676346962140e-01
2.437905999235766008e-01
2.437905999235766008e-01
2.437905999235766008e-01
2.567825754680932437e-01
2.567825754680932437e-01
2.430263660680168081e-01
2.430263660680168081e-01
2.430263660680168081e-01
2.483760030569354127e-01
2.483760030569354127e-01
2.460833014902560067e-01
2.460833014902560067e-01
2.460833014902560067e-01
2.575468093236530365e-01
2.575468093236530365e-01
2.506687046236148464e-01
2.506687046236148464e-01
2.506687046236148464e-01
2.453190676346962140e-01
2.453190676346962140e-01
2.487581199847153091e-01
2.487581199847153091e-01
2.487581199847153091e-01
2.334734428735192879e-01
2.334734428735192879e-01
2.544898739014138100e-01
2.544898739014138100e-01
2.544898739014138100e-01
2.453190676346962140e-01
2.453190676346962140e-01
2.407336645013374021e-01
2.407336645013374021e-01
2.407336645013374021e-01
2.617500955292319520e-01
2.617500955292319520e-01
2.483760030569354127e-01
2.483760030569354127e-01
2.483760030569354127e-01
2.353840275124187975e-01
2.353840275124187975e-01
2.403515475735575058e-01
2.403515475735575058e-01
2.403515475735575058e-01
2.544898739014138100e-01
2.544898739014138100e-01
2.369124952235384107e-01
2.369124952235384107e-01
2.369124952235384107e-01
2.296522735957202965e-01
2.296522735957202965e-01
2.216278181123423896e-01
2.216278181123423896e-01
2.216278181123423896e-01
2.158960641956438609e-01
2.158960641956438609e-01
2.418800152846771190e-01
2.418800152846771190e-01
2.418800152846771190e-01
2.181887657623232668e-01
2.181887657623232668e-01
2.334734428735192879e-01
2.334734428735192879e-01
2.334734428735192879e-01
2.220099350401222860e-01
2.220099350401222860e-01
2.430263660680168081e-01
2.430263660680168081e-01
2.430263660680168081e-01
2.097821933511654635e-01
2.097821933511654635e-01
2.319449751623997025e-01
2.319449751623997025e-01
2.319449751623997025e-01
2.147497134123041718e-01
2.147497134123041718e-01
2.250668704623614846e-01
2.250668704623614846e-01
2.250668704623614846e-01
2.178066488345433704e-01
2.178066488345433704e-01
2.254489873901413810e-01
2.254489873901413810e-01
2.254489873901413810e-01
2.300343905235001929e-01
2.300343905235001929e-01
2.216278181123423896e-01
2.216278181123423896e-01
2.216278181123423896e-01
2.105464272067252562e-01
2.105464272067252562e-01
1.960259839510890278e-01
1.960259839510890278e-01
1.960259839510890278e-01
2.239205196790217678e-01
2.239205196790217678e-01
1.952617500955292351e-01
1.952617500955292351e-01
1.952617500955292351e-01
1.906763469621704232e-01
1.906763469621704232e-01
2.090179594956056430e-01
2.090179594956056430e-01
2.090179594956056430e-01
1.914405808177302160e-01
1.914405808177302160e-01
1.975544516622086411e-01
1.975544516622086411e-01
1.975544516622086411e-01
2.113106610622850490e-01
2.113106610622850490e-01
2.132212457011845586e-01
2.132212457011845586e-01
2.132212457011845586e-01
2.067252579289262648e-01
2.067252579289262648e-01
1.868551776843714041e-01
1.868551776843714041e-01
1.868551776843714041e-01
1.987008024455483302e-01
1.987008024455483302e-01
1.834161253343523090e-01
1.834161253343523090e-01
1.799770729843332140e-01
1.799770729843332140e-01
1.799770729843332140e-01
1.822697745510126199e-01
1.822697745510126199e-01
1.818876576232326958e-01
1.818876576232326958e-01
1.818876576232326958e-01
1.864730607565915077e-01
1.864730607565915077e-01
1.925869316010699328e-01
1.925869316010699328e-01
1.925869316010699328e-01
1.883836453954910173e-01
1.883836453954910173e-01
1.696599159342759011e-01
1.696599159342759011e-01
1.696599159342759011e-01
1.948796331677493388e-01
1.948796331677493388e-01
1.815055406954527994e-01
1.815055406954527994e-01
1.815055406954527994e-01
1.929690485288498292e-01
1.929690485288498292e-01
1.761559037065341948e-01
1.761559037065341948e-01
1.761559037065341948e-01
1.620175773786778628e-01
1.620175773786778628e-01
1.604891096675582773e-01
1.604891096675582773e-01
1.604891096675582773e-01
1.795949560565533176e-01
1.795949560565533176e-01
1.864730607565915077e-01
1.864730607565915077e-01
1.864730607565915077e-01
1.792128391287733935e-01
1.792128391287733935e-01
1.769201375620939876e-01
1.769201375620939876e-01
1.769201375620939876e-01
1.776843714176538080e-01
1.776843714176538080e-01
1.528467711119602668e-01
1.528467711119602668e-01
1.528467711119602668e-01
1.566679403897592582e-01
1.566679403897592582e-01
1.795949560565533176e-01
1.795949560565533176e-01
1.795949560565533176e-01
1.803591899121131104e-01
1.803591899121131104e-01
1.482613679786014549e-01
1.482613679786014549e-01
1.482613679786014549e-01
1.742453190676346853e-01
1.742453190676346853e-01
1.581964081008788714e-01
1.581964081008788714e-01
1.581964081008788714e-01
1.482613679786014549e-01
1.482613679786014549e-01
1.478792510508215585e-01
1.478792510508215585e-01
1.478792510508215585e-01
1.402369124952235480e-01
1.402369124952235480e-01
1.463507833397019453e-01
1.463507833397019453e-01
1.463507833397019453e-01
1.559037065341994654e-01
1.559037065341994654e-01
1.413832632785632371e-01
1.413832632785632371e-01
1.413832632785632371e-01
1.440580817730225394e-01
1.440580817730225394e-01
1.646923958731371929e-01
1.646923958731371929e-01
1.646923958731371929e-01
1.348872755063049156e-01
1.348872755063049156e-01
1.452044325563622562e-01
1.452044325563622562e-01
1.452044325563622562e-01
1.520825372564004463e-01
1.520825372564004463e-01
1.490256018341612476e-01
1.490256018341612476e-01
1.490256018341612476e-01
1.593427588842185605e-01
1.593427588842185605e-01
1.260985861673672159e-01
1.260985861673672159e-01
1.260985861673672159e-01
1.501719526175009645e-01
1.501719526175009645e-01
1.562858234619793618e-01
1.562858234619793618e-01
1.562858234619793618e-01
1.551394726786396727e-01
1.551394726786396727e-01
1.245701184562476166e-01
1.245701184562476166e-01
1.245701184562476166e-01
1.390905617118838311e-01
1.390905617118838311e-01
1.341230416507451229e-01
1.341230416507451229e-01
1.341230416507451229e-01
1.257164692395873196e-01
1.257164692395873196e-01
1.490256018341612476e-01
1.490256018341612476e-01
1.490256018341612476e-01
1.260985861673672159e-01
1.260985861673672159e-01
1.303018723729461315e-01
1.303018723729461315e-01
1.303018723729461315e-01
1.215131830340084040e-01
1.215131830340084040e-01
1.517004203286205499e-01
1.517004203286205499e-01
1.517004203286205499e-01
1.360336262896446324e-01
1.360336262896446324e-01
1.329766908674054338e-01
1.329766908674054338e-01
1.329766908674054338e-01
1.283912877340466219e-01
1.283912877340466219e-01
1.264807030951471123e-01
1.264807030951471123e-01
1.264807030951471123e-01
1.448223156285823598e-01
1.448223156285823598e-01
1.490256018341612476e-01
1.490256018341612476e-01
1.490256018341612476e-01
1.367978601452044252e-01
1.367978601452044252e-01
1.238058846006878100e-01
1.238058846006878100e-01
1.238058846006878100e-01
1.440580817730225394e-01
1.440580817730225394e-01
1.238058846006878100e-01
1.238058846006878100e-01
1.238058846006878100e-01
1.524646541841803704e-01
1.524646541841803704e-01
1.257164692395873196e-01
1.257164692395873196e-01
1.257164692395873196e-01
1.260985861673672159e-01
1.260985861673672159e-01
1.513183034008406536e-01
1.513183034008406536e-01
1.513183034008406536e-01
1.253343523118074232e-01
1.253343523118074232e-01
1.306839893007260278e-01
1.306839893007260278e-01
1.306839893007260278e-01
1.436759648452426430e-01
1.436759648452426430e-01
1.398547955674436516e-01
1.398547955674436516e-01
1.398547955674436516e-01
1.268628200229270087e-01
1.268628200229270087e-01
1.356515093618647361e-01
1.356515093618647361e-01
1.356515093618647361e-01
1.287734046618265182e-01
1.287734046618265182e-01
1.257164692395873196e-01
1.257164692395873196e-01
1.257164692395873196e-01
1.562858234619793618e-01
1.562858234619793618e-01
1.463507833397019453e-01
1.463507833397019453e-01
1.463507833397019453e-01
1.570500573175391545e-01
1.570500573175391545e-01
1.387084447841039347e-01
1.387084447841039347e-01
1.387084447841039347e-01
1.421474971341230298e-01
1.421474971341230298e-01
1.325945739396255374e-01
1.325945739396255374e-01
1.325945739396255374e-01
1.440580817730225394e-01
1.440580817730225394e-01
1.436759648452426430e-01
1.436759648452426430e-01
1.436759648452426430e-01
1.383263278563240384e-01
1.383263278563240384e-01
1.283912877340466219e-01
1.283912877340466219e-01
1.325945739396255374e-01
1.325945739396255374e-01
1.325945739396255374e-01
1.455865494841421526e-01
1.455865494841421526e-01
1.589606419564386641e-01
1.589606419564386641e-01
1.589606419564386641e-01
1.337409247229652265e-01
1.337409247229652265e-01
1.509361864730607572e-01
1.509361864730607572e-01
1.509361864730607572e-01
1.341230416507451229e-01
1.341230416507451229e-01
1.440580817730225394e-01
1.440580817730225394e-01
1.440580817730225394e-01
1.513183034008406536e-01
1.513183034008406536e-01
1.452044325563622562e-01
1.452044325563622562e-01
1.452044325563622562e-01
1.367978601452044252e-01
1.367978601452044252e-01
1.505540695452808608e-01
1.505540695452808608e-01
1.505540695452808608e-01
1.608712265953381737e-01
1.608712265953381737e-01
1.566679403897592582e-01
1.566679403897592582e-01
1.566679403897592582e-01
1.482613679786014549e-01
1.482613679786014549e-01
1.440580817730225394e-01
1.440580817730225394e-01
1.440580817730225394e-01
1.364157432174245288e-01
1.364157432174245288e-01
1.559037065341994654e-01
1.559037065341994654e-01
1.559037065341994654e-01
1.620175773786778628e-01
1.620175773786778628e-01
1.623996943064577869e-01
1.623996943064577869e-01
1.623996943064577869e-01
1.559037065341994654e-01
1.559037065341994654e-01
1.371799770729843215e-01
1.371799770729843215e-01
1.371799770729843215e-01
1.337409247229652265e-01
1.337409247229652265e-01
1.639281620175773724e-01
1.639281620175773724e-01
1.639281620175773724e-01
1.543752388230798522e-01
1.543752388230798522e-01
1.631639281620175796e-01
1.631639281620175796e-01
1.631639281620175796e-01
1.643102789453572687e-01
1.643102789453572687e-01
1.379442109285441420e-01
1.379442109285441420e-01
1.379442109285441420e-01
1.413832632785632371e-01
1.413832632785632371e-01
1.685135651509361843e-01
1.685135651509361843e-01
1.685135651509361843e-01
1.429117309896828503e-01
1.429117309896828503e-01
1.425296140619029539e-01
1.425296140619029539e-01
1.425296140619029539e-01
1.425296140619029539e-01
1.425296140619029539e-01
1.719526175009552793e-01
1.719526175009552793e-01
1.719526175009552793e-01
1.543752388230798522e-01
1.543752388230798522e-01
1.455865494841421526e-01
1.455865494841421526e-01
1.455865494841421526e-01
1.765380206343140912e-01
1.765380206343140912e-01
1.517004203286205499e-01
1.517004203286205499e-01
1.517004203286205499e-01
1.658387466564768820e-01
1.658387466564768820e-01
1.818876576232326958e-01
1.818876576232326958e-01
1.818876576232326958e-01
1.559037065341994654e-01
1.559037065341994654e-01
1.696599159342759011e-01
1.696599159342759011e-01
1.696599159342759011e-01
1.750095529231945057e-01
1.750095529231945057e-01
1.704241497898356938e-01
1.704241497898356938e-01
1.704241497898356938e-01
1.887657623232709136e-01
1.887657623232709136e-01
1.956438670233091315e-01
1.956438670233091315e-01
1.956438670233091315e-01
1.822697745510126199e-01
1.822697745510126199e-01
1.925869316010699328e-01
1.925869316010699328e-01
1.925869316010699328e-01
2.155139472678639645e-01
2.155139472678639645e-01
1.979365685899885374e-01
1.979365685899885374e-01
1.979365685899885374e-01
2.281238058846006833e-01
2.281238058846006833e-01
2.090179594956056430e-01
2.090179594956056430e-01
2.090179594956056430e-01
2.143675964845242754e-01
2.143675964845242754e-01
2.346197936568590048e-01
2.346197936568590048e-01
2.346197936568590048e-01
2.311807413068398820e-01
2.311807413068398820e-01
2.323270920901795988e-01
2.323270920901795988e-01
2.323270920901795988e-01
2.644249140236912266e-01
2.644249140236912266e-01
2.613679786014520556e-01
2.613679786014520556e-01
2.613679786014520556e-01
2.835307604126862668e-01
2.835307604126862668e-01
2.724493695070691612e-01
2.724493695070691612e-01
2.724493695070691612e-01
2.953763851738632207e-01
2.953763851738632207e-01
3.014902560183416180e-01
3.014902560183416180e-01
3.014902560183416180e-01
3.060756591517004299e-01
3.060756591517004299e-01
2.869698127627053896e-01
2.869698127627053896e-01
2.869698127627053896e-01
3.068398930072602226e-01
3.068398930072602226e-01
3.011081390905617217e-01
3.011081390905617217e-01
3.011081390905617217e-01
3.186855177684371210e-01
3.186855177684371210e-01
3.320596102407336603e-01
3.320596102407336603e-01
3.320596102407336603e-01
3.202139854795567619e-01
3.202139854795567619e-01
3.347344287351929903e-01
3.347344287351929903e-01
3.347344287351929903e-01
3.404661826518914913e-01
3.404661826518914913e-01
3.393198318685518022e-01
3.393198318685518022e-01
3.393198318685518022e-01
3.706534199465036372e-01
3.706534199465036372e-01
3.698891860909438445e-01
3.698891860909438445e-01
3.698891860909438445e-01
3.691249522353840518e-01
3.691249522353840518e-01
3.584256782575467870e-01
3.584256782575467870e-01
3.584256782575467870e-01
3.844096293465800729e-01
3.844096293465800729e-01
3.836453954910202246e-01
3.836453954910202246e-01
3.836453954910202246e-01
3.698891860909438445e-01
3.698891860909438445e-01
3.901413832632785739e-01
3.901413832632785739e-01
3.901413832632785739e-01
4.050439434466946986e-01
4.050439434466946986e-01
3.809705769965609501e-01
3.809705769965609501e-01
4.050439434466946986e-01
4.050439434466946986e-01
4.050439434466946986e-01
4.004585403133358867e-01
4.004585403133358867e-01
4.035154757355751132e-01
4.035154757355751132e-01
4.035154757355751132e-01
4.084829957967138214e-01
4.084829957967138214e-01
4.153611004967520115e-01
4.153611004967520115e-01
4.153611004967520115e-01
3.970194879633167639e-01
3.970194879633167639e-01
3.977837218188765567e-01
3.977837218188765567e-01
3.977837218188765567e-01
3.974016048910966603e-01
3.974016048910966603e-01
4.188001528467711343e-01
4.188001528467711343e-01
4.188001528467711343e-01
4.054260603744745950e-01
4.054260603744745950e-01
4.264424914023691171e-01
4.264424914023691171e-01
4.264424914023691171e-01
4.245319067634696353e-01
4.245319067634696353e-01
4.077187619411539732e-01
4.077187619411539732e-01
4.077187619411539732e-01
4.272067252579289098e-01
4.272067252579289098e-01
4.031333588077951613e-01
4.031333588077951613e-01
4.031333588077951613e-01
4.138326327856324260e-01
4.138326327856324260e-01
3.996943064577760940e-01
3.996943064577760940e-01
3.996943064577760940e-01
4.161253343523118042e-01
4.161253343523118042e-01
4.058081773022544914e-01
4.058081773022544914e-01
4.058081773022544914e-01
4.031333588077951613e-01
4.031333588077951613e-01
4.103935804356133032e-01
4.103935804356133032e-01
4.103935804356133032e-01
4.008406572411157831e-01
4.008406572411157831e-01
4.145968666411922188e-01
4.145968666411922188e-01
4.145968666411922188e-01
3.974016048910966603e-01
3.974016048910966603e-01
4.130683989300725778e-01
4.130683989300725778e-01
4.130683989300725778e-01
4.210928544134505125e-01
4.210928544134505125e-01
3.993121895299961976e-01
3.993121895299961976e-01
3.993121895299961976e-01
4.172716851356514933e-01
4.172716851356514933e-01
4.008406572411157831e-01
4.008406572411157831e-01
4.008406572411157831e-01
4.191822697745510307e-01
4.191822697745510307e-01
3.924340848299579521e-01
3.924340848299579521e-01
3.924340848299579521e-01
4.038975926633550095e-01
4.038975926633550095e-01
3.947267863966373858e-01
3.947267863966373858e-01
3.947267863966373858e-01
3.947267863966373858e-01
3.947267863966373858e-01
4.092472296522736142e-01
4.092472296522736142e-01
4.092472296522736142e-01
3.851738632021398656e-01
3.851738632021398656e-01
4.008406572411157831e-01
4.008406572411157831e-01
4.008406572411157831e-01
4.035154757355751132e-01
4.035154757355751132e-01
3.867023309132594511e-01
3.867023309132594511e-01
3.867023309132594511e-01
3.817348108521207428e-01
3.817348108521207428e-01
3.958731371799770749e-01
3.958731371799770749e-01
3.958731371799770749e-01
3.947267863966373858e-01
3.947267863966373858e-01
4.012227741688956795e-01
4.012227741688956795e-01
4.012227741688956795e-01
3.721818876576232227e-01
3.721818876576232227e-01
3.977837218188765567e-01
3.977837218188765567e-01
3.977837218188765567e-01
3.717997707298433263e-01
3.717997707298433263e-01
3.672143675964845144e-01
3.672143675964845144e-01
3.672143675964845144e-01
3.878486816965991402e-01
3.878486816965991402e-01
3.637753152464653916e-01
3.637753152464653916e-01
3.637753152464653916e-01
3.679786014520443072e-01
3.679786014520443072e-01
3.821169277799006392e-01
3.821169277799006392e-01
3.821169277799006392e-01
3.641574321742453435e-01
3.641574321742453435e-01
3.794421092854413646e-01
3.794421092854413646e-01
3.794421092854413646e-01
3.633931983186854953e-01
3.633931983186854953e-01
3.500191058463890115e-01
3.500191058463890115e-01
3.500191058463890115e-01
3.576614444019869943e-01
3.576614444019869943e-01
3.645395491020252399e-01
3.645395491020252399e-01
3.645395491020252399e-01
3.572793274742070979e-01
3.572793274742070979e-01
3.488727550630492669e-01
3.488727550630492669e-01
3.488727550630492669e-01
3.431410011463507659e-01
3.431410011463507659e-01
3.584256782575467870e-01
3.584256782575467870e-01
3.584256782575467870e-01
3.370271303018723685e-01
3.370271303018723685e-01
3.595720290408865316e-01
3.595720290408865316e-01
3.595720290408865316e-01
3.358807795185326794e-01
3.358807795185326794e-01
3.263278563240351593e-01
3.263278563240351593e-01
3.263278563240351593e-01
3.244172716851356775e-01
3.244172716851356775e-01
3.202139854795567619e-01
3.202139854795567619e-01
3.202139854795567619e-01
3.309132594573939712e-01
3.309132594573939712e-01
3.133358807795185164e-01
3.133358807795185164e-01
3.133358807795185164e-01
3.087504776461597045e-01
3.087504776461597045e-01
3.125716469239587236e-01
3.125716469239587236e-01
3.125716469239587236e-01
3.347344287351929903e-01
3.347344287351929903e-01
3.209782193351165547e-01
3.209782193351165547e-01
3.209782193351165547e-01
3.225066870462361401e-01
3.225066870462361401e-01
3.007260221627818253e-01
3.007260221627818253e-01
3.007260221627818253e-01
2.957585021016431170e-01
2.957585021016431170e-01
2.919373328238440979e-01
2.919373328238440979e-01
2.919373328238440979e-01
2.854413450515858042e-01
2.854413450515858042e-01
2.793274742071073513e-01
2.793274742071073513e-01
2.793274742071073513e-01
2.808559419182269923e-01
2.808559419182269923e-01
2.774168895682078695e-01
2.774168895682078695e-01
2.827665265571264741e-01
2.827665265571264741e-01
2.827665265571264741e-01
2.873519296904852860e-01
2.873519296904852860e-01
2.743599541459686431e-01
2.743599541459686431e-01
2.743599541459686431e-01
2.758884218570882840e-01
2.758884218570882840e-01
2.747420710737485394e-01
2.747420710737485394e-01
2.747420710737485394e-01
2.697745510126098312e-01
2.697745510126098312e-01
2.606037447458922629e-01
2.606037447458922629e-01
2.606037447458922629e-01
2.644249140236912266e-01
2.644249140236912266e-01
2.823844096293465777e-01
2.823844096293465777e-01
2.823844096293465777e-01
2.506687046236148464e-01
2.506687046236148464e-01
2.793274742071073513e-01
2.793274742071073513e-01
2.793274742071073513e-01
2.514329384791746391e-01
2.514329384791746391e-01
2.716851356515093685e-01
2.716851356515093685e-01
2.716851356515093685e-01
2.690103171570500384e-01
2.690103171570500384e-01
2.724493695070691612e-01
2.724493695070691612e-01
2.724493695070691612e-01
2.441727168513565249e-01
2.441727168513565249e-01
2.663354986625907639e-01
2.663354986625907639e-01
2.663354986625907639e-01
2.628964463125716411e-01
2.628964463125716411e-01
2.628964463125716411e-01
2.628964463125716411e-01
2.628964463125716411e-01
2.403515475735575058e-01
2.403515475735575058e-01
2.590752770347726219e-01
2.590752770347726219e-01
2.590752770347726219e-01
2.334734428735192879e-01
2.334734428735192879e-01
2.407336645013374021e-01
2.407336645013374021e-01
2.407336645013374021e-01
2.307986243790599856e-01
2.307986243790599856e-01
2.586931601069927256e-01
2.586931601069927256e-01
2.586931601069927256e-01
2.564004585403133474e-01
2.564004585403133474e-01
2.334734428735192879e-01
2.334734428735192879e-01
2.334734428735192879e-01
2.372946121513183071e-01
2.372946121513183071e-01
2.254489873901413810e-01
2.254489873901413810e-01
2.254489873901413810e-01
2.353840275124187975e-01
2.353840275124187975e-01
2.384409629346579962e-01
2.384409629346579962e-01
2.384409629346579962e-01
2.418800152846771190e-01
2.418800152846771190e-01
2.204814673290026728e-01
2.204814673290026728e-01
2.204814673290026728e-01
2.407336645013374021e-01
2.407336645013374021e-01
2.212457011845624655e-01
2.212457011845624655e-01
2.212457011845624655e-01
2.323270920901795988e-01
2.323270920901795988e-01
2.181887657623232668e-01
2.181887657623232668e-01
2.181887657623232668e-01
2.411157814291172985e-01
2.411157814291172985e-01
2.441727168513565249e-01
2.441727168513565249e-01
2.441727168513565249e-01
2.212457011845624655e-01
2.212457011845624655e-01
2.166602980512036813e-01
2.166602980512036813e-01
2.166602980512036813e-01
2.315628582346198061e-01
2.315628582346198061e-01
2.281238058846006833e-01
2.281238058846006833e-01
2.281238058846006833e-01
2.158960641956438609e-01
2.158960641956438609e-01
2.258311043179212774e-01
2.258311043179212774e-01
2.258311043179212774e-01
2.216278181123423896e-01
2.216278181123423896e-01
2.193351165456629837e-01
2.193351165456629837e-01
2.193351165456629837e-01
2.185708826901031632e-01
2.185708826901031632e-01
2.162781811234237572e-01
2.162781811234237572e-01
2.162781811234237572e-01
2.342376767290791084e-01
2.342376767290791084e-01
2.158960641956438609e-01
2.158960641956438609e-01
2.158960641956438609e-01
2.407336645013374021e-01
2.407336645013374021e-01
2.178066488345433704e-01
2.178066488345433704e-01
2.178066488345433704e-01
2.254489873901413810e-01
2.254489873901413810e-01
2.235384027512418714e-01
2.235384027512418714e-01
2.235384027512418714e-01
2.350019105846389011e-01
2.350019105846389011e-01
2.189529996178830595e-01
2.189529996178830595e-01
2.189529996178830595e-01
2.136033626289644549e-01
2.136033626289644549e-01
2.426442491402369117e-01
2.426442491402369117e-01
2.426442491402369117e-01
2.269774551012609942e-01
2.269774551012609942e-01
2.380588460068780998e-01
2.380588460068780998e-01
2.380588460068780998e-01
2.212457011845624655e-01
2.212457011845624655e-01
2.327092090179594952e-01
2.327092090179594952e-01
2.327092090179594952e-01
2.189529996178830595e-01
2.189529996178830595e-01
2.120748949178448695e-01
2.120748949178448695e-01
2.120748949178448695e-01
2.296522735957202965e-01
2.296522735957202965e-01
2.365303782957585144e-01
2.365303782957585144e-01
2.365303782957585144e-01
2.166602980512036813e-01
2.166602980512036813e-01
2.181887657623232668e-01
2.181887657623232668e-01
2.181887657623232668e-01
2.178066488345433704e-01
2.178066488345433704e-01
2.074894917844860576e-01
2.074894917844860576e-01
2.074894917844860576e-01
2.128391287734046622e-01
2.128391287734046622e-01
2.315628582346198061e-01
2.315628582346198061e-01
2.315628582346198061e-01
2.361482613679785902e-01
2.361482613679785902e-01
2.327092090179594952e-01
2.327092090179594952e-01
2.327092090179594952e-01
2.376767290790982035e-01
2.376767290790982035e-01
2.143675964845242754e-01
2.143675964845242754e-01
2.143675964845242754e-01
2.243026366068016919e-01
2.243026366068016919e-01
2.101643102789453599e-01
2.101643102789453599e-01
2.101643102789453599e-01
2.178066488345433704e-01
2.178066488345433704e-01
2.025219717233473493e-01
2.025219717233473493e-01
2.025219717233473493e-01
1.967902178066488483e-01
1.967902178066488483e-01
2.040504394344669348e-01
2.040504394344669348e-01
2.155139472678639645e-01
2.155139472678639645e-01
2.155139472678639645e-01
2.281238058846006833e-01
2.281238058846006833e-01
2.090179594956056430e-01
2.090179594956056430e-01
2.090179594956056430e-01
2.071073748567061612e-01
2.071073748567061612e-01
2.254489873901413810e-01
2.254489873901413810e-01
2.254489873901413810e-01
2.109285441345051526e-01
2.109285441345051526e-01
1.952617500955292351e-01
1.952617500955292351e-01
1.952617500955292351e-01
2.246847535345815883e-01
2.246847535345815883e-01
2.128391287734046622e-01
2.128391287734046622e-01
2.128391287734046622e-01
2.132212457011845586e-01
2.132212457011845586e-01
2.082537256400458503e-01
2.082537256400458503e-01
2.082537256400458503e-01
2.143675964845242754e-01
2.143675964845242754e-01
2.051967902178066516e-01
2.051967902178066516e-01
2.051967902178066516e-01
2.116927779900649731e-01
2.116927779900649731e-01
1.895299961788307341e-01
1.895299961788307341e-01
1.895299961788307341e-01
2.082537256400458503e-01
2.082537256400458503e-01
2.120748949178448695e-01
2.120748949178448695e-01
