2.292701566679404002e-01
2.197172334734428800e-01
2.197172334734428800e-01
2.197172334734428800e-01
2.158960641956438609e-01
2.158960641956438609e-01
2.151318303400840681e-01
2.151318303400840681e-01
2.151318303400840681e-01
2.223920519679021823e-01
2.223920519679021823e-01
2.220099350401222860e-01
2.220099350401222860e-01
2.220099350401222860e-01
2.132212457011845586e-01
2.132212457011845586e-01
2.158960641956438609e-01
2.158960641956438609e-01
2.166602980512036813e-01
2.166602980512036813e-01
2.166602980512036813e-01
2.139854795567443513e-01
2.139854795567443513e-01
2.074894917844860576e-01
2.074894917844860576e-01
2.074894917844860576e-01
2.097821933511654635e-01
2.097821933511654635e-01
2.082537256400458503e-01
2.082537256400458503e-01
2.082537256400458503e-01
2.051967902178066516e-01
2.051967902178066516e-01
2.044325563622468589e-01
2.044325563622468589e-01
2.044325563622468589e-01
2.029040886511272457e-01
2.029040886511272457e-01
1.994650363011081506e-01
1.994650363011081506e-01
1.994650363011081506e-01
2.059610240733664444e-01
2.059610240733664444e-01
1.983186855177684338e-01
1.983186855177684338e-01
1.983186855177684338e-01
2.055789071455865480e-01
2.055789071455865480e-01
2.009935040122277361e-01
2.009935040122277361e-01
2.009935040122277361e-01
1.990829193733282265e-01
1.990829193733282265e-01
1.925869316010699328e-01
1.925869316010699328e-01
1.925869316010699328e-01
1.941153993121895183e-01
1.941153993121895183e-01
1.944975162399694424e-01
1.944975162399694424e-01
1.944975162399694424e-01
1.971723347344287447e-01
1.971723347344287447e-01
1.902942300343905269e-01
1.902942300343905269e-01
1.902942300343905269e-01
1.834161253343523090e-01
1.834161253343523090e-01
1.872372946121513282e-01
1.872372946121513282e-01
1.872372946121513282e-01
1.887657623232709136e-01
1.887657623232709136e-01
1.872372946121513282e-01
1.872372946121513282e-01
1.872372946121513282e-01
1.891478792510508100e-01
1.891478792510508100e-01
1.803591899121131104e-01
1.803591899121131104e-01
1.803591899121131104e-01
1.830340084065724127e-01
1.830340084065724127e-01
1.849445930454719222e-01
1.849445930454719222e-01
1.849445930454719222e-01
1.784486052732136008e-01
1.784486052732136008e-01
1.761559037065341948e-01
1.761559037065341948e-01
1.761559037065341948e-01
1.750095529231945057e-01
1.750095529231945057e-01
1.776843714176538080e-01
1.776843714176538080e-01
1.776843714176538080e-01
1.765380206343140912e-01
1.765380206343140912e-01
1.769201375620939876e-01
1.769201375620939876e-01
1.769201375620939876e-01
1.708062667176155902e-01
1.708062667176155902e-01
1.650745128009170892e-01
1.650745128009170892e-01
1.650745128009170892e-01
1.715705005731753829e-01
1.715705005731753829e-01
1.723347344287352034e-01
1.723347344287352034e-01
1.723347344287352034e-01
1.685135651509361843e-01
1.685135651509361843e-01
1.746274359954146094e-01
1.746274359954146094e-01
1.746274359954146094e-01
1.708062667176155902e-01
1.708062667176155902e-01
1.719526175009552793e-01
1.719526175009552793e-01
1.719526175009552793e-01
1.715705005731753829e-01
1.715705005731753829e-01
1.612533435231180701e-01
1.612533435231180701e-01
1.612533435231180701e-01
1.620175773786778628e-01
1.620175773786778628e-01
1.597248758119984846e-01
1.597248758119984846e-01
1.597248758119984846e-01
1.608712265953381737e-01
1.608712265953381737e-01
1.627818112342376833e-01
1.627818112342376833e-01
1.627818112342376833e-01
1.604891096675582773e-01
1.604891096675582773e-01
1.532288880397401631e-01
1.532288880397401631e-01
1.532288880397401631e-01
1.593427588842185605e-01
1.593427588842185605e-01
1.608712265953381737e-01
1.608712265953381737e-01
1.608712265953381737e-01
1.574321742453190787e-01
1.574321742453190787e-01
1.513183034008406536e-01
1.513183034008406536e-01
1.513183034008406536e-01
1.555215896064195691e-01
1.555215896064195691e-01
1.513183034008406536e-01
1.513183034008406536e-01
1.513183034008406536e-01
1.566679403897592582e-01
1.566679403897592582e-01
1.490256018341612476e-01
1.490256018341612476e-01
1.490256018341612476e-01
1.520825372564004463e-01
1.520825372564004463e-01
1.543752388230798522e-01
1.543752388230798522e-01
1.543752388230798522e-01
1.467329002674818417e-01
1.467329002674818417e-01
1.459686664119220489e-01
1.459686664119220489e-01
1.459686664119220489e-01
1.471150171952617380e-01
1.471150171952617380e-01
1.494077187619411440e-01
1.494077187619411440e-01
1.494077187619411440e-01
1.455865494841421526e-01
1.455865494841421526e-01
1.486434849063813513e-01
1.486434849063813513e-01
1.486434849063813513e-01
1.463507833397019453e-01
1.463507833397019453e-01
1.513183034008406536e-01
1.513183034008406536e-01
1.513183034008406536e-01
1.471150171952617380e-01
1.471150171952617380e-01
1.486434849063813513e-01
1.486434849063813513e-01
1.486434849063813513e-01
1.501719526175009645e-01
1.501719526175009645e-01
1.417653802063431334e-01
1.417653802063431334e-01
1.417653802063431334e-01
1.463507833397019453e-01
1.463507833397019453e-01
1.406190294230034443e-01
1.406190294230034443e-01
1.406190294230034443e-01
1.425296140619029539e-01
1.425296140619029539e-01
1.448223156285823598e-01
1.448223156285823598e-01
1.448223156285823598e-01
1.406190294230034443e-01
1.406190294230034443e-01
1.398547955674436516e-01
1.398547955674436516e-01
1.398547955674436516e-01
1.402369124952235480e-01
1.402369124952235480e-01
1.421474971341230298e-01
1.421474971341230298e-01
1.421474971341230298e-01
1.318303400840657169e-01
1.318303400840657169e-01
1.452044325563622562e-01
1.452044325563622562e-01
1.425296140619029539e-01
1.425296140619029539e-01
1.425296140619029539e-01
1.410011463507833407e-01
1.410011463507833407e-01
1.371799770729843215e-01
1.371799770729843215e-01
1.371799770729843215e-01
1.390905617118838311e-01
1.390905617118838311e-01
1.379442109285441420e-01
1.379442109285441420e-01
1.379442109285441420e-01
1.379442109285441420e-01
1.379442109285441420e-01
1.371799770729843215e-01
1.371799770729843215e-01
1.371799770729843215e-01
1.333588077951853301e-01
1.333588077951853301e-01
1.379442109285441420e-01
1.379442109285441420e-01
1.379442109285441420e-01
1.413832632785632371e-01
1.413832632785632371e-01
1.406190294230034443e-01
1.406190294230034443e-01
1.406190294230034443e-01
1.367978601452044252e-01
1.367978601452044252e-01
1.303018723729461315e-01
1.303018723729461315e-01
1.303018723729461315e-01
1.390905617118838311e-01
1.390905617118838311e-01
1.387084447841039347e-01
1.387084447841039347e-01
1.387084447841039347e-01
1.303018723729461315e-01
1.303018723729461315e-01
1.348872755063049156e-01
1.348872755063049156e-01
1.348872755063049156e-01
1.291555215896064146e-01
1.291555215896064146e-01
1.383263278563240384e-01
1.383263278563240384e-01
1.383263278563240384e-01
1.387084447841039347e-01
1.387084447841039347e-01
1.325945739396255374e-01
1.325945739396255374e-01
1.325945739396255374e-01
1.356515093618647361e-01
1.356515093618647361e-01
1.406190294230034443e-01
1.406190294230034443e-01
1.406190294230034443e-01
1.287734046618265182e-01
1.287734046618265182e-01
1.280091708062667255e-01
1.280091708062667255e-01
1.280091708062667255e-01
1.299197554451662073e-01
1.299197554451662073e-01
1.356515093618647361e-01
1.356515093618647361e-01
1.356515093618647361e-01
1.398547955674436516e-01
1.398547955674436516e-01
1.299197554451662073e-01
1.299197554451662073e-01
1.299197554451662073e-01
1.314482231562858205e-01
1.314482231562858205e-01
1.260985861673672159e-01
1.260985861673672159e-01
1.260985861673672159e-01
1.318303400840657169e-01
1.318303400840657169e-01
1.329766908674054338e-01
1.329766908674054338e-01
1.329766908674054338e-01
1.325945739396255374e-01
1.325945739396255374e-01
1.276270538784868291e-01
1.276270538784868291e-01
1.276270538784868291e-01
1.310661062285059242e-01
1.310661062285059242e-01
1.272449369507069050e-01
1.272449369507069050e-01
1.272449369507069050e-01
1.272449369507069050e-01
1.272449369507069050e-01
1.264807030951471123e-01
1.264807030951471123e-01
1.264807030951471123e-01
1.241880015284677063e-01
1.241880015284677063e-01
1.272449369507069050e-01
1.272449369507069050e-01
1.272449369507069050e-01
1.276270538784868291e-01
1.276270538784868291e-01
1.325945739396255374e-01
1.325945739396255374e-01
1.325945739396255374e-01
1.329766908674054338e-01
1.329766908674054338e-01
1.249522353840275130e-01
1.249522353840275130e-01
1.249522353840275130e-01
1.322124570118456133e-01
1.322124570118456133e-01
1.306839893007260278e-01
1.306839893007260278e-01
1.306839893007260278e-01
1.218952999617883004e-01
1.218952999617883004e-01
1.226595338173481070e-01
1.226595338173481070e-01
1.226595338173481070e-01
1.218952999617883004e-01
1.218952999617883004e-01
1.280091708062667255e-01
1.280091708062667255e-01
1.280091708062667255e-01
1.283912877340466219e-01
1.283912877340466219e-01
1.283912877340466219e-01
1.283912877340466219e-01
1.283912877340466219e-01
1.306839893007260278e-01
1.306839893007260278e-01
1.165456629728696958e-01
1.165456629728696958e-01
1.165456629728696958e-01
1.249522353840275130e-01
1.249522353840275130e-01
1.249522353840275130e-01
1.249522353840275130e-01
1.249522353840275130e-01
1.310661062285059242e-01
1.310661062285059242e-01
1.218952999617883004e-01
1.218952999617883004e-01
1.218952999617883004e-01
1.207489491784486113e-01
1.207489491784486113e-01
1.238058846006878100e-01
1.238058846006878100e-01
1.238058846006878100e-01
1.230416507451280034e-01
1.230416507451280034e-01
1.211310661062285077e-01
1.211310661062285077e-01
1.211310661062285077e-01
1.241880015284677063e-01
1.241880015284677063e-01
1.245701184562476166e-01
1.245701184562476166e-01
1.245701184562476166e-01
1.211310661062285077e-01
1.211310661062285077e-01
1.245701184562476166e-01
1.245701184562476166e-01
1.245701184562476166e-01
1.207489491784486113e-01
1.207489491784486113e-01
1.276270538784868291e-01
1.276270538784868291e-01
1.276270538784868291e-01
1.253343523118074232e-01
1.253343523118074232e-01
1.215131830340084040e-01
1.215131830340084040e-01
1.215131830340084040e-01
1.226595338173481070e-01
1.226595338173481070e-01
1.142529614061902898e-01
1.142529614061902898e-01
1.142529614061902898e-01
1.215131830340084040e-01
1.215131830340084040e-01
1.211310661062285077e-01
1.211310661062285077e-01
1.211310661062285077e-01
1.230416507451280034e-01
1.230416507451280034e-01
1.303018723729461315e-01
1.303018723729461315e-01
1.303018723729461315e-01
1.280091708062667255e-01
1.280091708062667255e-01
1.329766908674054338e-01
1.329766908674054338e-01
1.329766908674054338e-01
1.356515093618647361e-01
1.356515093618647361e-01
1.413832632785632371e-01
1.413832632785632371e-01
1.429117309896828503e-01
1.429117309896828503e-01
1.429117309896828503e-01
1.482613679786014549e-01
1.482613679786014549e-01
1.562858234619793618e-01
1.562858234619793618e-01
1.562858234619793618e-01
1.654566297286969856e-01
1.654566297286969856e-01
1.750095529231945057e-01
1.750095529231945057e-01
1.750095529231945057e-01
1.795949560565533176e-01
1.795949560565533176e-01
1.880015284677111209e-01
1.880015284677111209e-01
1.880015284677111209e-01
2.025219717233473493e-01
2.025219717233473493e-01
2.078716087122659539e-01
2.078716087122659539e-01
2.078716087122659539e-01
2.216278181123423896e-01
2.216278181123423896e-01
2.323270920901795988e-01
2.323270920901795988e-01
2.323270920901795988e-01
2.376767290790982035e-01
2.376767290790982035e-01
2.430263660680168081e-01
2.430263660680168081e-01
2.430263660680168081e-01
2.609858616736721593e-01
2.609858616736721593e-01
2.709209017959495758e-01
2.709209017959495758e-01
2.709209017959495758e-01
2.816201757737867850e-01
2.816201757737867850e-01
2.907909820405044088e-01
2.907909820405044088e-01
2.907909820405044088e-01
2.972869698127627025e-01
2.972869698127627025e-01
2.972869698127627025e-01
2.972869698127627025e-01
2.972869698127627025e-01
3.098968284294994491e-01
3.098968284294994491e-01
3.225066870462361401e-01
3.225066870462361401e-01
3.225066870462361401e-01
3.247993886129155738e-01
3.247993886129155738e-01
3.366450133740924722e-01
3.366450133740924722e-01
3.366450133740924722e-01
3.446694688574704069e-01
3.446694688574704069e-01
3.526939243408482860e-01
3.526939243408482860e-01
3.526939243408482860e-01
3.553687428353076161e-01
3.553687428353076161e-01
3.633931983186854953e-01
3.633931983186854953e-01
3.633931983186854953e-01
3.675964845242644108e-01
3.675964845242644108e-01
3.748567061520825527e-01
3.748567061520825527e-01
3.748567061520825527e-01
3.737103553687428081e-01
3.737103553687428081e-01
3.779136415743217237e-01
3.779136415743217237e-01
3.779136415743217237e-01
3.817348108521207428e-01
3.817348108521207428e-01
3.859380970576996583e-01
3.859380970576996583e-01
3.859380970576996583e-01
3.939625525410775930e-01
3.939625525410775930e-01
3.935804356132976967e-01
3.935804356132976967e-01
3.935804356132976967e-01
3.966373710355368676e-01
3.966373710355368676e-01
4.115399312189529923e-01
4.115399312189529923e-01
4.115399312189529923e-01
4.012227741688956795e-01
4.012227741688956795e-01
4.016048910966755758e-01
4.016048910966755758e-01
4.016048910966755758e-01
4.054260603744745950e-01
4.054260603744745950e-01
4.145968666411922188e-01
4.145968666411922188e-01
4.145968666411922188e-01
4.165074512800917006e-01
4.165074512800917006e-01
4.130683989300725778e-01
4.130683989300725778e-01
4.130683989300725778e-01
4.142147497134123224e-01
4.142147497134123224e-01
4.161253343523118042e-01
4.161253343523118042e-01
4.161253343523118042e-01
4.157432174245319079e-01
4.157432174245319079e-01
4.184180359189912379e-01
4.184180359189912379e-01
4.184180359189912379e-01
4.176538020634313897e-01
4.176538020634313897e-01
4.195643867023309270e-01
4.195643867023309270e-01
4.195643867023309270e-01
4.168895682078715970e-01
4.168895682078715970e-01
4.176538020634313897e-01
4.176538020634313897e-01
4.176538020634313897e-01
4.188001528467711343e-01
4.188001528467711343e-01
4.245319067634696353e-01
4.245319067634696353e-01
4.245319067634696353e-01
4.218570882690103052e-01
4.218570882690103052e-01
4.222392051967902016e-01
4.222392051967902016e-01
4.222392051967902016e-01
4.191822697745510307e-01
4.191822697745510307e-01
4.165074512800917006e-01
4.165074512800917006e-01
4.165074512800917006e-01
4.176538020634313897e-01
4.176538020634313897e-01
4.226213221245700979e-01
4.226213221245700979e-01
4.226213221245700979e-01
4.188001528467711343e-01
4.188001528467711343e-01
4.188001528467711343e-01
4.188001528467711343e-01
4.188001528467711343e-01
4.142147497134123224e-01
4.142147497134123224e-01
4.145968666411922188e-01
4.145968666411922188e-01
4.145968666411922188e-01
4.119220481467328887e-01
4.119220481467328887e-01
4.149789835689721151e-01
4.149789835689721151e-01
4.149789835689721151e-01
4.130683989300725778e-01
4.130683989300725778e-01
4.134505158578525297e-01
4.134505158578525297e-01
4.134505158578525297e-01
4.103935804356133032e-01
4.103935804356133032e-01
4.088651127244937178e-01
4.088651127244937178e-01
4.088651127244937178e-01
4.142147497134123224e-01
4.142147497134123224e-01
4.016048910966755758e-01
4.016048910966755758e-01
4.016048910966755758e-01
4.031333588077951613e-01
4.031333588077951613e-01
4.069545280855941805e-01
4.069545280855941805e-01
4.069545280855941805e-01
4.023691249522353686e-01
4.023691249522353686e-01
4.035154757355751132e-01
4.035154757355751132e-01
4.035154757355751132e-01
4.027512418800152649e-01
4.027512418800152649e-01
4.019870080244554722e-01
4.019870080244554722e-01
4.019870080244554722e-01
3.962552541077569712e-01
3.962552541077569712e-01
4.054260603744745950e-01
4.054260603744745950e-01
4.054260603744745950e-01
3.939625525410775930e-01
3.939625525410775930e-01
3.977837218188765567e-01
3.977837218188765567e-01
3.977837218188765567e-01
3.974016048910966603e-01
3.974016048910966603e-01
3.916698509743981593e-01
3.916698509743981593e-01
3.931983186855177448e-01
3.931983186855177448e-01
3.931983186855177448e-01
3.928162017577378484e-01
3.928162017577378484e-01
3.874665647688192438e-01
3.874665647688192438e-01
3.874665647688192438e-01
3.939625525410775930e-01
3.939625525410775930e-01
3.870844478410393474e-01
3.870844478410393474e-01
3.870844478410393474e-01
3.855559801299197620e-01
3.855559801299197620e-01
3.867023309132594511e-01
3.867023309132594511e-01
3.867023309132594511e-01
3.779136415743217237e-01
3.779136415743217237e-01
3.760030569354222418e-01
3.760030569354222418e-01
3.760030569354222418e-01
3.725640045854031190e-01
3.725640045854031190e-01
3.714176538020634299e-01
3.714176538020634299e-01
3.714176538020634299e-01
3.733282384409629118e-01
3.733282384409629118e-01
3.691249522353840518e-01
3.691249522353840518e-01
3.691249522353840518e-01
3.614826136797860134e-01
3.614826136797860134e-01
3.645395491020252399e-01
3.645395491020252399e-01
3.645395491020252399e-01
3.641574321742453435e-01
3.641574321742453435e-01
3.599541459686664280e-01
3.599541459686664280e-01
3.599541459686664280e-01
3.553687428353076161e-01
3.553687428353076161e-01
3.568972105464272015e-01
3.568972105464272015e-01
3.568972105464272015e-01
3.526939243408482860e-01
3.526939243408482860e-01
3.481085212074894741e-01
3.481085212074894741e-01
3.481085212074894741e-01
3.446694688574704069e-01
3.446694688574704069e-01
3.416125334352311804e-01
3.416125334352311804e-01
3.416125334352311804e-01
3.335880779518532457e-01
3.335880779518532457e-01
3.343523118074130940e-01
3.343523118074130940e-01
3.343523118074130940e-01
3.305311425296140748e-01
3.305311425296140748e-01
3.194497516239969692e-01
3.194497516239969692e-01
3.194497516239969692e-01
3.247993886129155738e-01
3.247993886129155738e-01
3.186855177684371210e-01
3.186855177684371210e-01
3.186855177684371210e-01
3.098968284294994491e-01
3.098968284294994491e-01
3.091325945739396008e-01
3.091325945739396008e-01
3.091325945739396008e-01
3.095147115017195527e-01
3.095147115017195527e-01
3.083683607183798081e-01
3.083683607183798081e-01
3.083683607183798081e-01
3.011081390905617217e-01
3.011081390905617217e-01
2.919373328238440979e-01
2.919373328238440979e-01
2.919373328238440979e-01
2.934658005349636833e-01
2.934658005349636833e-01
2.927015666794038906e-01
2.927015666794038906e-01
2.927015666794038906e-01
2.892625143293847678e-01
2.892625143293847678e-01
2.831486434849063705e-01
2.831486434849063705e-01
2.831486434849063705e-01
2.800917080626671996e-01
2.800917080626671996e-01
2.732136033626289540e-01
2.732136033626289540e-01
2.732136033626289540e-01
2.762705387848681804e-01
2.762705387848681804e-01
2.713030187237294721e-01
2.713030187237294721e-01
2.713030187237294721e-01
2.663354986625907639e-01
2.663354986625907639e-01
2.693924340848299348e-01
2.693924340848299348e-01
2.693924340848299348e-01
2.625143293847917447e-01
2.625143293847917447e-01
2.586931601069927256e-01
2.586931601069927256e-01
2.586931601069927256e-01
2.571646923958731401e-01
2.571646923958731401e-01
2.579289262514329328e-01
2.579289262514329328e-01
2.579289262514329328e-01
2.521971723347344319e-01
2.521971723347344319e-01
2.506687046236148464e-01
2.506687046236148464e-01
2.506687046236148464e-01
2.468475353458158272e-01
2.468475353458158272e-01
2.468475353458158272e-01
2.468475353458158272e-01
2.468475353458158272e-01
2.437905999235766008e-01
2.437905999235766008e-01
2.525792892625143282e-01
2.525792892625143282e-01
2.525792892625143282e-01
2.449369507069163177e-01
2.449369507069163177e-01
2.418800152846771190e-01
2.418800152846771190e-01
2.418800152846771190e-01
2.468475353458158272e-01
2.468475353458158272e-01
2.399694306457776094e-01
2.399694306457776094e-01
2.399694306457776094e-01
2.350019105846389011e-01
2.350019105846389011e-01
2.388230798624378926e-01
2.388230798624378926e-01
2.388230798624378926e-01
2.342376767290791084e-01
2.342376767290791084e-01
2.346197936568590048e-01
2.346197936568590048e-01
2.346197936568590048e-01
2.384409629346579962e-01
2.384409629346579962e-01
2.430263660680168081e-01
2.430263660680168081e-01
2.430263660680168081e-01
2.369124952235384107e-01
2.369124952235384107e-01
2.361482613679785902e-01
2.361482613679785902e-01
2.361482613679785902e-01
2.357661444401986939e-01
2.357661444401986939e-01
2.330913259457393916e-01
2.330913259457393916e-01
2.330913259457393916e-01
2.376767290790982035e-01
2.376767290790982035e-01
2.330913259457393916e-01
2.330913259457393916e-01
2.330913259457393916e-01
2.346197936568590048e-01
2.346197936568590048e-01
2.250668704623614846e-01
2.250668704623614846e-01
2.250668704623614846e-01
2.323270920901795988e-01
2.323270920901795988e-01
2.338555598012991843e-01
2.338555598012991843e-01
2.338555598012991843e-01
2.311807413068398820e-01
2.311807413068398820e-01
2.342376767290791084e-01
2.342376767290791084e-01
2.342376767290791084e-01
2.342376767290791084e-01
2.342376767290791084e-01
2.243026366068016919e-01
2.243026366068016919e-01
2.243026366068016919e-01
2.231562858234619751e-01
2.231562858234619751e-01
2.250668704623614846e-01
2.250668704623614846e-01
2.239205196790217678e-01
2.239205196790217678e-01
2.239205196790217678e-01
2.296522735957202965e-01
2.296522735957202965e-01
2.220099350401222860e-01
2.220099350401222860e-01
2.220099350401222860e-01
2.189529996178830595e-01
2.189529996178830595e-01
2.181887657623232668e-01
2.181887657623232668e-01
2.181887657623232668e-01
2.189529996178830595e-01
2.189529996178830595e-01
2.189529996178830595e-01
2.189529996178830595e-01
2.189529996178830595e-01
2.212457011845624655e-01
2.212457011845624655e-01
2.128391287734046622e-01
2.128391287734046622e-01
2.128391287734046622e-01
2.143675964845242754e-01
2.143675964845242754e-01
2.162781811234237572e-01
2.162781811234237572e-01
2.162781811234237572e-01
2.162781811234237572e-01
2.162781811234237572e-01
2.155139472678639645e-01
2.155139472678639645e-01
2.155139472678639645e-01
2.105464272067252562e-01
2.105464272067252562e-01
2.101643102789453599e-01
2.101643102789453599e-01
2.101643102789453599e-01
2.078716087122659539e-01
2.078716087122659539e-01
2.124570118456247658e-01
2.124570118456247658e-01
2.124570118456247658e-01
2.021398547955674529e-01
2.021398547955674529e-01
2.082537256400458503e-01
2.082537256400458503e-01
2.082537256400458503e-01
2.063431410011463407e-01
2.063431410011463407e-01
2.082537256400458503e-01
2.082537256400458503e-01
2.082537256400458503e-01
2.021398547955674529e-01
2.021398547955674529e-01
1.967902178066488483e-01
1.967902178066488483e-01
1.967902178066488483e-01
1.987008024455483302e-01
1.987008024455483302e-01
2.009935040122277361e-01
2.009935040122277361e-01
2.009935040122277361e-01
2.017577378677875566e-01
2.017577378677875566e-01
1.979365685899885374e-01
1.979365685899885374e-01
1.979365685899885374e-01
1.967902178066488483e-01
1.967902178066488483e-01
1.918226977455101123e-01
1.918226977455101123e-01
1.918226977455101123e-01
1.979365685899885374e-01
1.979365685899885374e-01
1.929690485288498292e-01
1.929690485288498292e-01
1.929690485288498292e-01
1.880015284677111209e-01
1.880015284677111209e-01
1.902942300343905269e-01
1.902942300343905269e-01
1.902942300343905269e-01
1.891478792510508100e-01
1.891478792510508100e-01
1.906763469621704232e-01
1.906763469621704232e-01
1.906763469621704232e-01
1.872372946121513282e-01
1.872372946121513282e-01
1.880015284677111209e-01
1.880015284677111209e-01
1.880015284677111209e-01
1.868551776843714041e-01
1.868551776843714041e-01
1.860909438288116113e-01
1.860909438288116113e-01
1.860909438288116113e-01
1.792128391287733935e-01
1.792128391287733935e-01
1.830340084065724127e-01
1.830340084065724127e-01
1.830340084065724127e-01
1.834161253343523090e-01
1.834161253343523090e-01
1.815055406954527994e-01
1.815055406954527994e-01
1.815055406954527994e-01
1.780664883454337044e-01
1.780664883454337044e-01
1.818876576232326958e-01
1.818876576232326958e-01
1.818876576232326958e-01
1.669850974398165711e-01
1.669850974398165711e-01
1.734810852120748925e-01
1.734810852120748925e-01
1.734810852120748925e-01
1.788307222009934971e-01
1.788307222009934971e-01
1.704241497898356938e-01
1.704241497898356938e-01
1.704241497898356938e-01
1.666029805120366747e-01
1.666029805120366747e-01
1.704241497898356938e-01
1.704241497898356938e-01
1.704241497898356938e-01
1.673672143675964952e-01
1.673672143675964952e-01
1.711883836453954866e-01
1.711883836453954866e-01
1.711883836453954866e-01
1.742453190676346853e-01
1.742453190676346853e-01
1.597248758119984846e-01
1.597248758119984846e-01
1.597248758119984846e-01
1.631639281620175796e-01
1.631639281620175796e-01
1.574321742453190787e-01
1.574321742453190787e-01
1.574321742453190787e-01
1.631639281620175796e-01
1.631639281620175796e-01
1.608712265953381737e-01
1.608712265953381737e-01
1.608712265953381737e-01
1.604891096675582773e-01
1.604891096675582773e-01
1.566679403897592582e-01
1.566679403897592582e-01
1.566679403897592582e-01
1.597248758119984846e-01
1.597248758119984846e-01
1.612533435231180701e-01
1.612533435231180701e-01
1.612533435231180701e-01
1.528467711119602668e-01
1.528467711119602668e-01
1.585785250286587678e-01
1.585785250286587678e-01
1.585785250286587678e-01
1.562858234619793618e-01
1.562858234619793618e-01
1.604891096675582773e-01
1.604891096675582773e-01
1.604891096675582773e-01
1.486434849063813513e-01
1.486434849063813513e-01
1.520825372564004463e-01
1.520825372564004463e-01
1.520825372564004463e-01
1.513183034008406536e-01
1.513183034008406536e-01
1.555215896064195691e-01
1.555215896064195691e-01
1.555215896064195691e-01
1.593427588842185605e-01
1.593427588842185605e-01
1.459686664119220489e-01
1.459686664119220489e-01
1.459686664119220489e-01
1.524646541841803704e-01
1.524646541841803704e-01
1.486434849063813513e-01
1.486434849063813513e-01
1.486434849063813513e-01
1.520825372564004463e-01
1.520825372564004463e-01
1.482613679786014549e-01
1.482613679786014549e-01
1.482613679786014549e-01
1.486434849063813513e-01
1.486434849063813513e-01
1.524646541841803704e-01
1.524646541841803704e-01
1.524646541841803704e-01
1.505540695452808608e-01
1.505540695452808608e-01
1.474971341230416622e-01
1.474971341230416622e-01
1.474971341230416622e-01
1.421474971341230298e-01
1.421474971341230298e-01
1.482613679786014549e-01
1.482613679786014549e-01
1.425296140619029539e-01
1.425296140619029539e-01
1.425296140619029539e-01
1.444401987008024357e-01
1.444401987008024357e-01
1.394726786396637275e-01
1.394726786396637275e-01
1.394726786396637275e-01
1.486434849063813513e-01
1.486434849063813513e-01
1.429117309896828503e-01
1.429117309896828503e-01
1.429117309896828503e-01
1.367978601452044252e-01
1.367978601452044252e-01
1.482613679786014549e-01
1.482613679786014549e-01
1.482613679786014549e-01
1.440580817730225394e-01
1.440580817730225394e-01
1.471150171952617380e-01
1.471150171952617380e-01
1.471150171952617380e-01
1.402369124952235480e-01
1.402369124952235480e-01
1.463507833397019453e-01
1.463507833397019453e-01
1.463507833397019453e-01
1.406190294230034443e-01
1.406190294230034443e-01
1.375620940007642456e-01
1.375620940007642456e-01
1.375620940007642456e-01
1.452044325563622562e-01
1.452044325563622562e-01
1.429117309896828503e-01
1.429117309896828503e-01
1.429117309896828503e-01
1.390905617118838311e-01
1.390905617118838311e-01
1.429117309896828503e-01
1.429117309896828503e-01
1.429117309896828503e-01
1.410011463507833407e-01
1.410011463507833407e-01
1.394726786396637275e-01
1.394726786396637275e-01
1.394726786396637275e-01
1.440580817730225394e-01
1.440580817730225394e-01
1.444401987008024357e-01
1.444401987008024357e-01
1.444401987008024357e-01
1.383263278563240384e-01
1.383263278563240384e-01
1.390905617118838311e-01
1.390905617118838311e-01
1.390905617118838311e-01
1.322124570118456133e-01
1.322124570118456133e-01
1.501719526175009645e-01
1.501719526175009645e-01
1.501719526175009645e-01
1.303018723729461315e-01
1.303018723729461315e-01
1.463507833397019453e-01
1.463507833397019453e-01
1.463507833397019453e-01
1.367978601452044252e-01
1.367978601452044252e-01
1.325945739396255374e-01
1.325945739396255374e-01
1.325945739396255374e-01
1.333588077951853301e-01
1.333588077951853301e-01
1.371799770729843215e-01
1.371799770729843215e-01
1.371799770729843215e-01
1.348872755063049156e-01
1.348872755063049156e-01
1.436759648452426430e-01
1.436759648452426430e-01
1.436759648452426430e-01
1.417653802063431334e-01
1.417653802063431334e-01
1.425296140619029539e-01
1.425296140619029539e-01
1.425296140619029539e-01
1.394726786396637275e-01
1.394726786396637275e-01
1.325945739396255374e-01
1.325945739396255374e-01
1.325945739396255374e-01
1.291555215896064146e-01
1.291555215896064146e-01
1.375620940007642456e-01
1.375620940007642456e-01
1.375620940007642456e-01
1.333588077951853301e-01
1.333588077951853301e-01
1.310661062285059242e-01
1.310661062285059242e-01
1.310661062285059242e-01
1.333588077951853301e-01
1.333588077951853301e-01
1.348872755063049156e-01
1.348872755063049156e-01
1.348872755063049156e-01
1.329766908674054338e-01
1.329766908674054338e-01
1.398547955674436516e-01
1.398547955674436516e-01
1.398547955674436516e-01
1.398547955674436516e-01
1.398547955674436516e-01
1.360336262896446324e-01
1.360336262896446324e-01
1.360336262896446324e-01
1.375620940007642456e-01
1.375620940007642456e-01
1.402369124952235480e-01
1.402369124952235480e-01
1.402369124952235480e-01
1.306839893007260278e-01
1.306839893007260278e-01
1.318303400840657169e-01
1.318303400840657169e-01
1.318303400840657169e-01
1.322124570118456133e-01
1.322124570118456133e-01
1.345051585785250192e-01
1.345051585785250192e-01
1.345051585785250192e-01
1.318303400840657169e-01
1.318303400840657169e-01
1.325945739396255374e-01
1.325945739396255374e-01
1.325945739396255374e-01
1.356515093618647361e-01
1.356515093618647361e-01
1.345051585785250192e-01
1.345051585785250192e-01
1.345051585785250192e-01
1.367978601452044252e-01
1.367978601452044252e-01
1.283912877340466219e-01
1.283912877340466219e-01
1.283912877340466219e-01
1.287734046618265182e-01
1.287734046618265182e-01
1.318303400840657169e-01
1.318303400840657169e-01
1.318303400840657169e-01
1.310661062285059242e-01
1.310661062285059242e-01
1.333588077951853301e-01
1.333588077951853301e-01
1.333588077951853301e-01
1.314482231562858205e-01
1.314482231562858205e-01
1.299197554451662073e-01
1.299197554451662073e-01
1.299197554451662073e-01
1.322124570118456133e-01
1.322124570118456133e-01
1.283912877340466219e-01
1.283912877340466219e-01
1.283912877340466219e-01
1.348872755063049156e-01
1.348872755063049156e-01
1.306839893007260278e-01
1.306839893007260278e-01
1.306839893007260278e-01
1.276270538784868291e-01
1.276270538784868291e-01
1.276270538784868291e-01
1.276270538784868291e-01
1.276270538784868291e-01
1.245701184562476166e-01
1.245701184562476166e-01
1.276270538784868291e-01
1.276270538784868291e-01
1.276270538784868291e-01
1.295376385173863110e-01
1.295376385173863110e-01
1.238058846006878100e-01
1.238058846006878100e-01
1.238058846006878100e-01
1.260985861673672159e-01
1.260985861673672159e-01
1.329766908674054338e-01
1.329766908674054338e-01
1.329766908674054338e-01
1.218952999617883004e-01
1.218952999617883004e-01
1.226595338173481070e-01
1.226595338173481070e-01
1.226595338173481070e-01
1.276270538784868291e-01
1.276270538784868291e-01
1.203668322506687011e-01
1.203668322506687011e-01
1.218952999617883004e-01
1.218952999617883004e-01
1.218952999617883004e-01
1.272449369507069050e-01
1.272449369507069050e-01
1.230416507451280034e-01
1.230416507451280034e-01
1.230416507451280034e-01
1.272449369507069050e-01
1.272449369507069050e-01
1.280091708062667255e-01
1.280091708062667255e-01
1.280091708062667255e-01
1.314482231562858205e-01
1.314482231562858205e-01
1.241880015284677063e-01
1.241880015284677063e-01
1.241880015284677063e-01
1.280091708062667255e-01
1.280091708062667255e-01
1.318303400840657169e-01
1.318303400840657169e-01
1.318303400840657169e-01
1.280091708062667255e-01
1.280091708062667255e-01
1.322124570118456133e-01
1.322124570118456133e-01
1.322124570118456133e-01
1.306839893007260278e-01
1.306839893007260278e-01
1.280091708062667255e-01
1.280091708062667255e-01
1.280091708062667255e-01
1.379442109285441420e-01
1.379442109285441420e-01
1.360336262896446324e-01
1.360336262896446324e-01
1.360336262896446324e-01
1.337409247229652265e-01
1.337409247229652265e-01
1.448223156285823598e-01
1.448223156285823598e-01
1.448223156285823598e-01
1.505540695452808608e-01
1.505540695452808608e-01
1.623996943064577869e-01
1.623996943064577869e-01
1.623996943064577869e-01
1.578142911730989750e-01
1.578142911730989750e-01
1.650745128009170892e-01
1.650745128009170892e-01
1.650745128009170892e-01
1.738632021398547889e-01
1.738632021398547889e-01
1.860909438288116113e-01
1.860909438288116113e-01
1.860909438288116113e-01
1.925869316010699328e-01
1.925869316010699328e-01
2.032862055789071420e-01
2.032862055789071420e-01
2.032862055789071420e-01
2.147497134123041718e-01
2.147497134123041718e-01
2.208635842567825691e-01
2.208635842567825691e-01
2.208635842567825691e-01
2.315628582346198061e-01
2.315628582346198061e-01
2.453190676346962140e-01
2.453190676346962140e-01
2.453190676346962140e-01
2.564004585403133474e-01
2.564004585403133474e-01
2.678639663737103493e-01
2.678639663737103493e-01
2.678639663737103493e-01
2.770347726404279731e-01
2.770347726404279731e-01
2.820022927015666814e-01
2.820022927015666814e-01
2.820022927015666814e-01
2.934658005349636833e-01
2.934658005349636833e-01
3.114252961406190345e-01
3.114252961406190345e-01
3.114252961406190345e-01
3.152464654184180537e-01
3.152464654184180537e-01
3.225066870462361401e-01
3.225066870462361401e-01
3.225066870462361401e-01
3.263278563240351593e-01
3.263278563240351593e-01
3.450515857852503032e-01
3.450515857852503032e-01
3.450515857852503032e-01
3.435231180741306622e-01
3.435231180741306622e-01
3.519296904852884933e-01
3.519296904852884933e-01
3.519296904852884933e-01
3.576614444019869943e-01
3.576614444019869943e-01
3.614826136797860134e-01
3.614826136797860134e-01
3.614826136797860134e-01
3.737103553687428081e-01
3.737103553687428081e-01
3.756209400076423455e-01
3.756209400076423455e-01
3.756209400076423455e-01
3.809705769965609501e-01
3.809705769965609501e-01
3.867023309132594511e-01
3.867023309132594511e-01
3.867023309132594511e-01
3.893771494077187811e-01
3.893771494077187811e-01
3.958731371799770749e-01
3.958731371799770749e-01
3.958731371799770749e-01
3.985479556744364049e-01
3.985479556744364049e-01
4.027512418800152649e-01
4.027512418800152649e-01
4.027512418800152649e-01
4.065724111578142841e-01
4.065724111578142841e-01
4.119220481467328887e-01
4.119220481467328887e-01
4.119220481467328887e-01
4.176538020634313897e-01
4.176538020634313897e-01
4.126862820022926814e-01
4.126862820022926814e-01
4.126862820022926814e-01
4.142147497134123224e-01
4.142147497134123224e-01
4.195643867023309270e-01
4.195643867023309270e-01
4.195643867023309270e-01
4.191822697745510307e-01
4.191822697745510307e-01
4.252961406190294280e-01
4.252961406190294280e-01
4.252961406190294280e-01
4.195643867023309270e-01
4.195643867023309270e-01
4.317921283912877217e-01
4.317921283912877217e-01
4.317921283912877217e-01
4.230034390523499943e-01
4.230034390523499943e-01
4.298815437523882399e-01
4.298815437523882399e-01
4.298815437523882399e-01
4.275888421857088062e-01
4.275888421857088062e-01
4.272067252579289098e-01
4.272067252579289098e-01
4.272067252579289098e-01
4.325563622468475145e-01
4.325563622468475145e-01
4.337027130301872591e-01
4.337027130301872591e-01
4.337027130301872591e-01
4.298815437523882399e-01
4.298815437523882399e-01
4.275888421857088062e-01
4.275888421857088062e-01
4.275888421857088062e-01
4.329384791746274108e-01
4.329384791746274108e-01
4.340848299579671554e-01
4.340848299579671554e-01
4.340848299579671554e-01
4.298815437523882399e-01
4.298815437523882399e-01
4.337027130301872591e-01
4.337027130301872591e-01
4.337027130301872591e-01
4.260603744745892207e-01
4.260603744745892207e-01
4.314100114635078254e-01
4.314100114635078254e-01
4.314100114635078254e-01
4.302636606801681363e-01
4.302636606801681363e-01
4.298815437523882399e-01
4.298815437523882399e-01
4.298815437523882399e-01
4.264424914023691171e-01
4.264424914023691171e-01
4.226213221245700979e-01
4.226213221245700979e-01
4.226213221245700979e-01
4.298815437523882399e-01
4.298815437523882399e-01
4.264424914023691171e-01
4.264424914023691171e-01
4.226213221245700979e-01
4.226213221245700979e-01
4.226213221245700979e-01
4.306457776079480326e-01
4.306457776079480326e-01
4.184180359189912379e-01
4.184180359189912379e-01
4.184180359189912379e-01
4.241497898356897389e-01
4.241497898356897389e-01
4.264424914023691171e-01
4.264424914023691171e-01
4.264424914023691171e-01
4.172716851356514933e-01
4.172716851356514933e-01
4.176538020634313897e-01
4.176538020634313897e-01
4.176538020634313897e-01
4.142147497134123224e-01
4.142147497134123224e-01
4.153611004967520115e-01
4.153611004967520115e-01
4.153611004967520115e-01
4.172716851356514933e-01
4.172716851356514933e-01
4.149789835689721151e-01
4.149789835689721151e-01
4.149789835689721151e-01
4.210928544134505125e-01
4.210928544134505125e-01
4.161253343523118042e-01
4.161253343523118042e-01
4.161253343523118042e-01
4.065724111578142841e-01
4.065724111578142841e-01
4.038975926633550095e-01
4.038975926633550095e-01
4.038975926633550095e-01
4.046618265189148023e-01
4.046618265189148023e-01
4.100114635078334069e-01
4.100114635078334069e-01
4.100114635078334069e-01
4.027512418800152649e-01
4.027512418800152649e-01
4.027512418800152649e-01
4.027512418800152649e-01
4.027512418800152649e-01
3.993121895299961976e-01
3.993121895299961976e-01
4.000764233855559904e-01
4.000764233855559904e-01
4.000764233855559904e-01
4.023691249522353686e-01
4.023691249522353686e-01
4.004585403133358867e-01
4.004585403133358867e-01
4.004585403133358867e-01
3.993121895299961976e-01
3.993121895299961976e-01
3.882307986243790365e-01
3.882307986243790365e-01
3.882307986243790365e-01
3.943446694688574894e-01
3.943446694688574894e-01
3.928162017577378484e-01
3.928162017577378484e-01
3.928162017577378484e-01
3.935804356132976967e-01
3.935804356132976967e-01
3.886129155521589329e-01
3.886129155521589329e-01
3.886129155521589329e-01
3.817348108521207428e-01
3.817348108521207428e-01
3.809705769965609501e-01
3.809705769965609501e-01
3.809705769965609501e-01
3.802063431410011574e-01
3.802063431410011574e-01
3.824990447076805355e-01
3.824990447076805355e-01
3.824990447076805355e-01
3.717997707298433263e-01
3.717997707298433263e-01
3.760030569354222418e-01
3.760030569354222418e-01
3.760030569354222418e-01
3.702713030187237409e-01
3.702713030187237409e-01
3.687428353076040999e-01
3.687428353076040999e-01
3.687428353076040999e-01
3.660680168131448253e-01
3.660680168131448253e-01
3.599541459686664280e-01
3.599541459686664280e-01
3.599541459686664280e-01
3.595720290408865316e-01
3.595720290408865316e-01
3.504012227741689078e-01
3.504012227741689078e-01
3.504012227741689078e-01
3.557508597630875125e-01
3.557508597630875125e-01
3.492548719908292187e-01
3.492548719908292187e-01
3.492548719908292187e-01
3.473442873519296814e-01
3.473442873519296814e-01
3.412304165074512841e-01
3.412304165074512841e-01
3.412304165074512841e-01
3.320596102407336603e-01
3.320596102407336603e-01
3.339701948796331421e-01
3.339701948796331421e-01
3.339701948796331421e-01
3.263278563240351593e-01
3.263278563240351593e-01
3.267099732518150557e-01
3.267099732518150557e-01
3.267099732518150557e-01
3.190676346962170173e-01
3.190676346962170173e-01
3.186855177684371210e-01
3.186855177684371210e-01
3.186855177684371210e-01
3.156285823461979501e-01
3.156285823461979501e-01
3.118074130683989309e-01
3.118074130683989309e-01
3.118074130683989309e-01
3.125716469239587236e-01
3.125716469239587236e-01
3.068398930072602226e-01
3.068398930072602226e-01
3.068398930072602226e-01
2.965227359572029098e-01
2.965227359572029098e-01
2.957585021016431170e-01
2.957585021016431170e-01
2.957585021016431170e-01
2.881161635460450787e-01
2.881161635460450787e-01
2.919373328238440979e-01
2.919373328238440979e-01
2.919373328238440979e-01
2.854413450515858042e-01
2.854413450515858042e-01
2.777990064959877659e-01
2.777990064959877659e-01
2.777990064959877659e-01
2.755063049293083877e-01
2.755063049293083877e-01
2.789453572793274549e-01
2.789453572793274549e-01
2.789453572793274549e-01
2.789453572793274549e-01
2.789453572793274549e-01
2.781811234237676622e-01
2.781811234237676622e-01
2.781811234237676622e-01
2.678639663737103493e-01
2.678639663737103493e-01
2.617500955292319520e-01
2.617500955292319520e-01
2.617500955292319520e-01
2.636606801681314338e-01
2.636606801681314338e-01
2.564004585403133474e-01
2.564004585403133474e-01
2.564004585403133474e-01
2.521971723347344319e-01
2.521971723347344319e-01
2.628964463125716411e-01
2.628964463125716411e-01
2.628964463125716411e-01
2.514329384791746391e-01
2.514329384791746391e-01
2.567825754680932437e-01
2.567825754680932437e-01
2.567825754680932437e-01
2.533435231180741209e-01
2.533435231180741209e-01
2.464654184180359309e-01
2.464654184180359309e-01
2.464654184180359309e-01
2.525792892625143282e-01
2.525792892625143282e-01
2.499044707680550259e-01
2.499044707680550259e-01
2.499044707680550259e-01
2.514329384791746391e-01
2.514329384791746391e-01
2.422621322124570153e-01
2.422621322124570153e-01
2.422621322124570153e-01
2.426442491402369117e-01
2.426442491402369117e-01
2.525792892625143282e-01
2.525792892625143282e-01
2.525792892625143282e-01
2.395873137179977130e-01
2.395873137179977130e-01
2.414978983568972226e-01
2.414978983568972226e-01
2.495223538402751295e-01
2.495223538402751295e-01
2.495223538402751295e-01
2.460833014902560067e-01
2.460833014902560067e-01
2.437905999235766008e-01
2.437905999235766008e-01
2.437905999235766008e-01
2.399694306457776094e-01
2.399694306457776094e-01
2.476117692013756200e-01
2.476117692013756200e-01
2.476117692013756200e-01
2.437905999235766008e-01
2.437905999235766008e-01
2.388230798624378926e-01
2.388230798624378926e-01
2.388230798624378926e-01
2.449369507069163177e-01
2.449369507069163177e-01
2.365303782957585144e-01
2.365303782957585144e-01
2.365303782957585144e-01
2.422621322124570153e-01
2.422621322124570153e-01
2.453190676346962140e-01
2.453190676346962140e-01
2.453190676346962140e-01
2.399694306457776094e-01
2.399694306457776094e-01
2.346197936568590048e-01
2.346197936568590048e-01
2.346197936568590048e-01
2.353840275124187975e-01
2.353840275124187975e-01
2.346197936568590048e-01
2.346197936568590048e-01
2.346197936568590048e-01
2.372946121513183071e-01
2.372946121513183071e-01
2.311807413068398820e-01
2.311807413068398820e-01
2.311807413068398820e-01
2.307986243790599856e-01
2.307986243790599856e-01
2.392051967902178167e-01
2.392051967902178167e-01
2.392051967902178167e-01
2.395873137179977130e-01
2.395873137179977130e-01
2.357661444401986939e-01
2.357661444401986939e-01
2.357661444401986939e-01
2.315628582346198061e-01
2.315628582346198061e-01
2.307986243790599856e-01
2.307986243790599856e-01
2.307986243790599856e-01
2.296522735957202965e-01
2.296522735957202965e-01
2.315628582346198061e-01
2.315628582346198061e-01
2.315628582346198061e-01
2.334734428735192879e-01
2.334734428735192879e-01
2.254489873901413810e-01
2.254489873901413810e-01
2.254489873901413810e-01
2.246847535345815883e-01
2.246847535345815883e-01
2.269774551012609942e-01
2.269774551012609942e-01
2.269774551012609942e-01
2.254489873901413810e-01
2.254489873901413810e-01
2.250668704623614846e-01
2.250668704623614846e-01
2.250668704623614846e-01
2.185708826901031632e-01
2.185708826901031632e-01
2.189529996178830595e-01
2.189529996178830595e-01
2.189529996178830595e-01
2.204814673290026728e-01
2.204814673290026728e-01
2.181887657623232668e-01
2.181887657623232668e-01
2.181887657623232668e-01
2.139854795567443513e-01
2.139854795567443513e-01
2.227741688956820787e-01
2.227741688956820787e-01
2.227741688956820787e-01
2.162781811234237572e-01
2.162781811234237572e-01
2.097821933511654635e-01
2.097821933511654635e-01
2.097821933511654635e-01
2.074894917844860576e-01
2.074894917844860576e-01
2.040504394344669348e-01
2.040504394344669348e-01
2.040504394344669348e-01
2.071073748567061612e-01
2.071073748567061612e-01
2.082537256400458503e-01
2.082537256400458503e-01
2.082537256400458503e-01
2.017577378677875566e-01
2.017577378677875566e-01
2.013756209400076325e-01
2.013756209400076325e-01
2.013756209400076325e-01
2.032862055789071420e-01
2.032862055789071420e-01
1.983186855177684338e-01
1.983186855177684338e-01
1.983186855177684338e-01
2.051967902178066516e-01
2.051967902178066516e-01
2.048146732900267553e-01
2.048146732900267553e-01
2.048146732900267553e-01
1.948796331677493388e-01
1.948796331677493388e-01
1.937332823844096219e-01
1.937332823844096219e-01
1.937332823844096219e-01
1.925869316010699328e-01
1.925869316010699328e-01
1.925869316010699328e-01
1.925869316010699328e-01
1.925869316010699328e-01
1.929690485288498292e-01
1.929690485288498292e-01
1.883836453954910173e-01
1.883836453954910173e-01
1.883836453954910173e-01
1.868551776843714041e-01
1.868551776843714041e-01
1.780664883454337044e-01
1.780664883454337044e-01
1.780664883454337044e-01
1.860909438288116113e-01
1.860909438288116113e-01
1.891478792510508100e-01
1.891478792510508100e-01
1.891478792510508100e-01
1.815055406954527994e-01
1.815055406954527994e-01
1.891478792510508100e-01
1.891478792510508100e-01
1.891478792510508100e-01
1.830340084065724127e-01
1.830340084065724127e-01
1.822697745510126199e-01
1.822697745510126199e-01
1.822697745510126199e-01
1.784486052732136008e-01
1.784486052732136008e-01
1.757737867787542985e-01
1.757737867787542985e-01
1.757737867787542985e-01
1.765380206343140912e-01
1.765380206343140912e-01
1.734810852120748925e-01
1.734810852120748925e-01
1.734810852120748925e-01
1.742453190676346853e-01
1.742453190676346853e-01
1.715705005731753829e-01
1.715705005731753829e-01
1.715705005731753829e-01
1.742453190676346853e-01
1.742453190676346853e-01
1.677493312953763915e-01
1.677493312953763915e-01
1.677493312953763915e-01
1.765380206343140912e-01
1.765380206343140912e-01
1.696599159342759011e-01
1.696599159342759011e-01
1.696599159342759011e-01
1.750095529231945057e-01
1.750095529231945057e-01
1.688956820787160806e-01
1.688956820787160806e-01
1.688956820787160806e-01
1.646923958731371929e-01
1.646923958731371929e-01
1.654566297286969856e-01
1.654566297286969856e-01
1.654566297286969856e-01
1.593427588842185605e-01
1.593427588842185605e-01
1.639281620175773724e-01
1.639281620175773724e-01
1.639281620175773724e-01
1.658387466564768820e-01
1.658387466564768820e-01
1.623996943064577869e-01
1.623996943064577869e-01
1.681314482231562879e-01
1.681314482231562879e-01
1.681314482231562879e-01
1.604891096675582773e-01
1.604891096675582773e-01
1.646923958731371929e-01
1.646923958731371929e-01
1.646923958731371929e-01
1.597248758119984846e-01
1.597248758119984846e-01
1.570500573175391545e-01
1.570500573175391545e-01
1.570500573175391545e-01
1.551394726786396727e-01
1.551394726786396727e-01
1.532288880397401631e-01
1.532288880397401631e-01
1.532288880397401631e-01
1.612533435231180701e-01
1.612533435231180701e-01
1.635460450897974760e-01
1.635460450897974760e-01
1.635460450897974760e-01
1.593427588842185605e-01
1.593427588842185605e-01
1.528467711119602668e-01
1.528467711119602668e-01
1.528467711119602668e-01
1.555215896064195691e-01
1.555215896064195691e-01
1.471150171952617380e-01
1.471150171952617380e-01
1.471150171952617380e-01
1.539931218952999559e-01
1.539931218952999559e-01
1.524646541841803704e-01
1.524646541841803704e-01
1.524646541841803704e-01
1.532288880397401631e-01
1.532288880397401631e-01
1.543752388230798522e-01
1.543752388230798522e-01
1.543752388230798522e-01
1.505540695452808608e-01
1.505540695452808608e-01
1.520825372564004463e-01
1.520825372564004463e-01
1.520825372564004463e-01
1.520825372564004463e-01
1.520825372564004463e-01
1.478792510508215585e-01
1.478792510508215585e-01
1.478792510508215585e-01
1.501719526175009645e-01
1.501719526175009645e-01
1.501719526175009645e-01
1.501719526175009645e-01
1.501719526175009645e-01
1.513183034008406536e-01
1.513183034008406536e-01
1.517004203286205499e-01
1.517004203286205499e-01
1.517004203286205499e-01
1.474971341230416622e-01
1.474971341230416622e-01
1.482613679786014549e-01
1.482613679786014549e-01
1.482613679786014549e-01
1.524646541841803704e-01
1.524646541841803704e-01
1.474971341230416622e-01
1.474971341230416622e-01
1.474971341230416622e-01
1.471150171952617380e-01
1.471150171952617380e-01
1.520825372564004463e-01
1.520825372564004463e-01
1.520825372564004463e-01
1.455865494841421526e-01
1.455865494841421526e-01
1.490256018341612476e-01
1.490256018341612476e-01
1.490256018341612476e-01
1.440580817730225394e-01
1.440580817730225394e-01
1.463507833397019453e-01
1.463507833397019453e-01
1.463507833397019453e-01
1.471150171952617380e-01
1.471150171952617380e-01
1.452044325563622562e-01
1.452044325563622562e-01
1.452044325563622562e-01
1.490256018341612476e-01
1.490256018341612476e-01
1.410011463507833407e-01
1.410011463507833407e-01
1.410011463507833407e-01
1.486434849063813513e-01
1.486434849063813513e-01
1.398547955674436516e-01
1.398547955674436516e-01
1.398547955674436516e-01
1.486434849063813513e-01
1.486434849063813513e-01
1.410011463507833407e-01
1.410011463507833407e-01
1.410011463507833407e-01
1.371799770729843215e-01
1.371799770729843215e-01
1.490256018341612476e-01
1.490256018341612476e-01
1.490256018341612476e-01
1.402369124952235480e-01
1.402369124952235480e-01
1.398547955674436516e-01
1.398547955674436516e-01
1.398547955674436516e-01
1.429117309896828503e-01
1.429117309896828503e-01
1.452044325563622562e-01
1.452044325563622562e-01
1.452044325563622562e-01
1.452044325563622562e-01
1.452044325563622562e-01
1.379442109285441420e-01
1.379442109285441420e-01
1.379442109285441420e-01
1.421474971341230298e-01
1.421474971341230298e-01
1.494077187619411440e-01
1.494077187619411440e-01
1.494077187619411440e-01
1.387084447841039347e-01
1.387084447841039347e-01
1.356515093618647361e-01
1.356515093618647361e-01
1.356515093618647361e-01
1.413832632785632371e-01
1.413832632785632371e-01
1.432938479174627466e-01
1.432938479174627466e-01
1.432938479174627466e-01
1.367978601452044252e-01
1.367978601452044252e-01
1.379442109285441420e-01
1.379442109285441420e-01
1.379442109285441420e-01
1.455865494841421526e-01
1.455865494841421526e-01
1.394726786396637275e-01
1.394726786396637275e-01
1.394726786396637275e-01
1.421474971341230298e-01
1.421474971341230298e-01
1.494077187619411440e-01
1.494077187619411440e-01
1.494077187619411440e-01
1.410011463507833407e-01
1.410011463507833407e-01
1.429117309896828503e-01
1.429117309896828503e-01
1.429117309896828503e-01
1.341230416507451229e-01
1.341230416507451229e-01
1.394726786396637275e-01
1.394726786396637275e-01
1.394726786396637275e-01
1.417653802063431334e-01
1.417653802063431334e-01
1.425296140619029539e-01
1.425296140619029539e-01
1.425296140619029539e-01
1.410011463507833407e-01
1.410011463507833407e-01
1.379442109285441420e-01
1.379442109285441420e-01
1.379442109285441420e-01
1.413832632785632371e-01
1.413832632785632371e-01
1.390905617118838311e-01
1.390905617118838311e-01
1.390905617118838311e-01
1.413832632785632371e-01
1.413832632785632371e-01
1.360336262896446324e-01
1.360336262896446324e-01
1.360336262896446324e-01
1.406190294230034443e-01
1.406190294230034443e-01
1.356515093618647361e-01
1.356515093618647361e-01
1.356515093618647361e-01
1.410011463507833407e-01
1.410011463507833407e-01
1.417653802063431334e-01
1.417653802063431334e-01
1.417653802063431334e-01
1.390905617118838311e-01
1.390905617118838311e-01
1.379442109285441420e-01
1.379442109285441420e-01
1.379442109285441420e-01
1.318303400840657169e-01
1.318303400840657169e-01
1.394726786396637275e-01
1.394726786396637275e-01
1.398547955674436516e-01
1.398547955674436516e-01
1.398547955674436516e-01
1.425296140619029539e-01
1.425296140619029539e-01
1.345051585785250192e-01
1.345051585785250192e-01
1.345051585785250192e-01
1.283912877340466219e-01
1.283912877340466219e-01
1.390905617118838311e-01
1.390905617118838311e-01
1.390905617118838311e-01
1.413832632785632371e-01
1.413832632785632371e-01
1.367978601452044252e-01
1.367978601452044252e-01
1.367978601452044252e-01
1.379442109285441420e-01
1.379442109285441420e-01
1.375620940007642456e-01
1.375620940007642456e-01
1.375620940007642456e-01
1.379442109285441420e-01
1.379442109285441420e-01
1.364157432174245288e-01
1.364157432174245288e-01
1.364157432174245288e-01
1.352693924340848397e-01
1.352693924340848397e-01
1.306839893007260278e-01
1.306839893007260278e-01
1.306839893007260278e-01
1.314482231562858205e-01
1.314482231562858205e-01
1.341230416507451229e-01
1.341230416507451229e-01
1.341230416507451229e-01
1.280091708062667255e-01
1.280091708062667255e-01
1.280091708062667255e-01
1.280091708062667255e-01
