3.251815055406954702e-01
3.251815055406954702e-01
3.251815055406954702e-01
3.267099732518150557e-01
3.267099732518150557e-01
3.209782193351165547e-01
3.209782193351165547e-01
3.209782193351165547e-01
3.202139854795567619e-01
3.202139854795567619e-01
3.190676346962170173e-01
3.190676346962170173e-01
3.190676346962170173e-01
3.205961024073366583e-01
3.205961024073366583e-01
3.064577760794803263e-01
3.064577760794803263e-01
3.064577760794803263e-01
3.183034008406572246e-01
3.183034008406572246e-01
3.121895299961788273e-01
3.121895299961788273e-01
3.121895299961788273e-01
3.007260221627818253e-01
3.007260221627818253e-01
2.953763851738632207e-01
2.953763851738632207e-01
2.953763851738632207e-01
3.049293083683607408e-01
3.049293083683607408e-01
3.003439052350019289e-01
3.003439052350019289e-01
3.003439052350019289e-01
2.942300343905234761e-01
2.942300343905234761e-01
2.991975544516621843e-01
2.991975544516621843e-01
2.991975544516621843e-01
2.873519296904852860e-01
2.873519296904852860e-01
2.835307604126862668e-01
2.835307604126862668e-01
2.835307604126862668e-01
2.915552158960642015e-01
2.915552158960642015e-01
2.739778372181887467e-01
2.739778372181887467e-01
2.739778372181887467e-01
2.770347726404279731e-01
2.770347726404279731e-01
2.648070309514711229e-01
2.648070309514711229e-01
2.648070309514711229e-01
2.732136033626289540e-01
2.732136033626289540e-01
2.682460833014902457e-01
2.682460833014902457e-01
2.682460833014902457e-01
2.766526557126480768e-01
2.766526557126480768e-01
2.670997325181505566e-01
2.670997325181505566e-01
2.670997325181505566e-01
2.667176155903706603e-01
2.667176155903706603e-01
2.621322124570118484e-01
2.621322124570118484e-01
2.621322124570118484e-01
2.590752770347726219e-01
2.590752770347726219e-01
2.648070309514711229e-01
2.648070309514711229e-01
2.648070309514711229e-01
2.518150554069545355e-01
2.518150554069545355e-01
2.606037447458922629e-01
2.606037447458922629e-01
2.606037447458922629e-01
2.525792892625143282e-01
2.525792892625143282e-01
2.625143293847917447e-01
2.625143293847917447e-01
2.625143293847917447e-01
2.407336645013374021e-01
2.407336645013374021e-01
2.571646923958731401e-01
2.571646923958731401e-01
2.571646923958731401e-01
2.399694306457776094e-01
2.399694306457776094e-01
2.399694306457776094e-01
2.399694306457776094e-01
2.399694306457776094e-01
2.537256400458540173e-01
2.537256400458540173e-01
2.483760030569354127e-01
2.483760030569354127e-01
2.483760030569354127e-01
2.380588460068780998e-01
2.380588460068780998e-01
2.521971723347344319e-01
2.521971723347344319e-01
2.521971723347344319e-01
2.338555598012991843e-01
2.338555598012991843e-01
2.307986243790599856e-01
2.307986243790599856e-01
2.307986243790599856e-01
2.457011845624761104e-01
2.457011845624761104e-01
2.330913259457393916e-01
2.330913259457393916e-01
2.430263660680168081e-01
2.430263660680168081e-01
2.430263660680168081e-01
2.403515475735575058e-01
2.403515475735575058e-01
2.472296522735957236e-01
2.472296522735957236e-01
2.472296522735957236e-01
2.384409629346579962e-01
2.384409629346579962e-01
2.327092090179594952e-01
2.327092090179594952e-01
2.327092090179594952e-01
2.357661444401986939e-01
2.357661444401986939e-01
2.327092090179594952e-01
2.327092090179594952e-01
2.327092090179594952e-01
2.285059228123805797e-01
2.285059228123805797e-01
2.243026366068016919e-01
2.243026366068016919e-01
2.243026366068016919e-01
2.178066488345433704e-01
2.178066488345433704e-01
2.223920519679021823e-01
2.223920519679021823e-01
2.223920519679021823e-01
2.296522735957202965e-01
2.296522735957202965e-01
2.254489873901413810e-01
2.254489873901413810e-01
2.254489873901413810e-01
2.189529996178830595e-01
2.189529996178830595e-01
2.327092090179594952e-01
2.327092090179594952e-01
2.327092090179594952e-01
2.292701566679404002e-01
2.292701566679404002e-01
2.178066488345433704e-01
2.178066488345433704e-01
2.178066488345433704e-01
2.239205196790217678e-01
2.239205196790217678e-01
2.239205196790217678e-01
2.239205196790217678e-01
2.239205196790217678e-01
2.113106610622850490e-01
2.113106610622850490e-01
2.223920519679021823e-01
2.223920519679021823e-01
2.223920519679021823e-01
2.128391287734046622e-01
2.128391287734046622e-01
2.094000764233855671e-01
2.094000764233855671e-01
2.094000764233855671e-01
2.220099350401222860e-01
2.220099350401222860e-01
2.155139472678639645e-01
2.155139472678639645e-01
2.155139472678639645e-01
2.063431410011463407e-01
2.063431410011463407e-01
2.189529996178830595e-01
2.189529996178830595e-01
2.189529996178830595e-01
2.113106610622850490e-01
2.113106610622850490e-01
1.994650363011081506e-01
1.994650363011081506e-01
1.994650363011081506e-01
2.009935040122277361e-01
2.009935040122277361e-01
2.078716087122659539e-01
2.078716087122659539e-01
2.078716087122659539e-01
2.044325563622468589e-01
2.044325563622468589e-01
2.120748949178448695e-01
2.120748949178448695e-01
2.120748949178448695e-01
1.929690485288498292e-01
1.929690485288498292e-01
1.956438670233091315e-01
1.956438670233091315e-01
1.956438670233091315e-01
2.006113870844478397e-01
2.006113870844478397e-01
2.074894917844860576e-01
2.074894917844860576e-01
2.074894917844860576e-01
2.021398547955674529e-01
2.021398547955674529e-01
2.021398547955674529e-01
2.021398547955674529e-01
2.021398547955674529e-01
2.059610240733664444e-01
2.059610240733664444e-01
2.040504394344669348e-01
2.040504394344669348e-01
2.040504394344669348e-01
1.994650363011081506e-01
1.994650363011081506e-01
1.914405808177302160e-01
1.914405808177302160e-01
1.914405808177302160e-01
1.876194115399312246e-01
1.876194115399312246e-01
1.952617500955292351e-01
1.952617500955292351e-01
1.952617500955292351e-01
1.860909438288116113e-01
1.860909438288116113e-01
2.006113870844478397e-01
2.006113870844478397e-01
2.006113870844478397e-01
1.979365685899885374e-01
1.979365685899885374e-01
1.807413068398930067e-01
1.807413068398930067e-01
1.807413068398930067e-01
1.914405808177302160e-01
1.914405808177302160e-01
1.845624761176920259e-01
1.845624761176920259e-01
1.845624761176920259e-01
1.803591899121131104e-01
1.803591899121131104e-01
1.895299961788307341e-01
1.895299961788307341e-01
1.895299961788307341e-01
1.807413068398930067e-01
1.807413068398930067e-01
1.937332823844096219e-01
1.937332823844096219e-01
1.937332823844096219e-01
1.845624761176920259e-01
1.845624761176920259e-01
1.815055406954527994e-01
1.815055406954527994e-01
1.815055406954527994e-01
1.727168513565150998e-01
1.727168513565150998e-01
1.761559037065341948e-01
1.761559037065341948e-01
1.761559037065341948e-01
1.792128391287733935e-01
1.792128391287733935e-01
1.734810852120748925e-01
1.734810852120748925e-01
1.734810852120748925e-01
1.834161253343523090e-01
1.834161253343523090e-01
1.692777990064959770e-01
1.692777990064959770e-01
1.692777990064959770e-01
1.715705005731753829e-01
1.715705005731753829e-01
1.853267099732518186e-01
1.853267099732518186e-01
1.853267099732518186e-01
1.853267099732518186e-01
1.853267099732518186e-01
1.738632021398547889e-01
1.738632021398547889e-01
1.738632021398547889e-01
1.673672143675964952e-01
1.673672143675964952e-01
1.631639281620175796e-01
1.631639281620175796e-01
1.631639281620175796e-01
1.776843714176538080e-01
1.776843714176538080e-01
1.780664883454337044e-01
1.780664883454337044e-01
1.780664883454337044e-01
1.750095529231945057e-01
1.750095529231945057e-01
1.646923958731371929e-01
1.646923958731371929e-01
1.646923958731371929e-01
1.769201375620939876e-01
1.769201375620939876e-01
1.769201375620939876e-01
1.769201375620939876e-01
1.769201375620939876e-01
1.696599159342759011e-01
1.696599159342759011e-01
1.753916698509744021e-01
1.753916698509744021e-01
1.753916698509744021e-01
1.597248758119984846e-01
1.597248758119984846e-01
1.643102789453572687e-01
1.643102789453572687e-01
1.643102789453572687e-01
1.566679403897592582e-01
1.566679403897592582e-01
1.746274359954146094e-01
1.746274359954146094e-01
1.746274359954146094e-01
1.597248758119984846e-01
1.597248758119984846e-01
1.673672143675964952e-01
1.673672143675964952e-01
1.688956820787160806e-01
1.688956820787160806e-01
1.688956820787160806e-01
1.532288880397401631e-01
1.532288880397401631e-01
1.757737867787542985e-01
1.757737867787542985e-01
1.757737867787542985e-01
1.616354604508979664e-01
1.616354604508979664e-01
1.666029805120366747e-01
1.666029805120366747e-01
1.666029805120366747e-01
1.620175773786778628e-01
1.620175773786778628e-01
1.711883836453954866e-01
1.711883836453954866e-01
1.711883836453954866e-01
1.528467711119602668e-01
1.528467711119602668e-01
1.673672143675964952e-01
1.673672143675964952e-01
1.673672143675964952e-01
1.539931218952999559e-01
1.539931218952999559e-01
1.677493312953763915e-01
1.677493312953763915e-01
1.677493312953763915e-01
1.509361864730607572e-01
1.509361864730607572e-01
1.669850974398165711e-01
1.669850974398165711e-01
1.669850974398165711e-01
1.604891096675582773e-01
1.604891096675582773e-01
1.585785250286587678e-01
1.585785250286587678e-01
1.585785250286587678e-01
1.486434849063813513e-01
1.486434849063813513e-01
1.620175773786778628e-01
1.620175773786778628e-01
1.620175773786778628e-01
1.574321742453190787e-01
1.574321742453190787e-01
1.501719526175009645e-01
1.501719526175009645e-01
1.501719526175009645e-01
1.497898356897210681e-01
1.497898356897210681e-01
1.536110049675200595e-01
1.536110049675200595e-01
1.536110049675200595e-01
1.585785250286587678e-01
1.585785250286587678e-01
1.585785250286587678e-01
1.585785250286587678e-01
1.585785250286587678e-01
1.486434849063813513e-01
1.486434849063813513e-01
1.467329002674818417e-01
1.467329002674818417e-01
1.467329002674818417e-01
1.623996943064577869e-01
1.623996943064577869e-01
1.616354604508979664e-01
1.616354604508979664e-01
1.616354604508979664e-01
1.524646541841803704e-01
1.524646541841803704e-01
1.612533435231180701e-01
1.612533435231180701e-01
1.612533435231180701e-01
1.608712265953381737e-01
1.608712265953381737e-01
1.436759648452426430e-01
1.436759648452426430e-01
1.436759648452426430e-01
1.559037065341994654e-01
1.559037065341994654e-01
1.616354604508979664e-01
1.616354604508979664e-01
1.616354604508979664e-01
1.486434849063813513e-01
1.486434849063813513e-01
1.517004203286205499e-01
1.517004203286205499e-01
1.517004203286205499e-01
1.432938479174627466e-01
1.432938479174627466e-01
1.417653802063431334e-01
1.417653802063431334e-01
1.417653802063431334e-01
1.432938479174627466e-01
1.432938479174627466e-01
1.390905617118838311e-01
1.390905617118838311e-01
1.390905617118838311e-01
1.620175773786778628e-01
1.620175773786778628e-01
1.532288880397401631e-01
1.532288880397401631e-01
1.532288880397401631e-01
1.459686664119220489e-01
1.459686664119220489e-01
1.635460450897974760e-01
1.635460450897974760e-01
1.635460450897974760e-01
1.524646541841803704e-01
1.524646541841803704e-01
1.394726786396637275e-01
1.394726786396637275e-01
1.394726786396637275e-01
1.581964081008788714e-01
1.581964081008788714e-01
1.566679403897592582e-01
1.566679403897592582e-01
1.566679403897592582e-01
1.421474971341230298e-01
1.421474971341230298e-01
1.452044325563622562e-01
1.452044325563622562e-01
1.452044325563622562e-01
1.417653802063431334e-01
1.417653802063431334e-01
1.501719526175009645e-01
1.501719526175009645e-01
1.501719526175009645e-01
1.501719526175009645e-01
1.501719526175009645e-01
1.387084447841039347e-01
1.387084447841039347e-01
1.387084447841039347e-01
1.432938479174627466e-01
1.432938479174627466e-01
1.448223156285823598e-01
1.448223156285823598e-01
1.448223156285823598e-01
1.497898356897210681e-01
1.497898356897210681e-01
1.543752388230798522e-01
1.543752388230798522e-01
1.543752388230798522e-01
1.520825372564004463e-01
1.520825372564004463e-01
1.463507833397019453e-01
1.463507833397019453e-01
1.463507833397019453e-01
1.581964081008788714e-01
1.581964081008788714e-01
1.387084447841039347e-01
1.387084447841039347e-01
1.387084447841039347e-01
1.379442109285441420e-01
1.379442109285441420e-01
1.467329002674818417e-01
1.467329002674818417e-01
1.467329002674818417e-01
1.444401987008024357e-01
1.444401987008024357e-01
1.524646541841803704e-01
1.524646541841803704e-01
1.524646541841803704e-01
1.375620940007642456e-01
1.375620940007642456e-01
1.501719526175009645e-01
1.501719526175009645e-01
1.501719526175009645e-01
1.402369124952235480e-01
1.402369124952235480e-01
1.467329002674818417e-01
1.467329002674818417e-01
1.467329002674818417e-01
1.379442109285441420e-01
1.379442109285441420e-01
1.310661062285059242e-01
1.310661062285059242e-01
1.310661062285059242e-01
1.356515093618647361e-01
1.356515093618647361e-01
1.459686664119220489e-01
1.459686664119220489e-01
1.459686664119220489e-01
1.505540695452808608e-01
1.505540695452808608e-01
1.459686664119220489e-01
1.459686664119220489e-01
1.459686664119220489e-01
1.413832632785632371e-01
1.413832632785632371e-01
1.478792510508215585e-01
1.478792510508215585e-01
1.478792510508215585e-01
1.482613679786014549e-01
1.482613679786014549e-01
1.578142911730989750e-01
1.578142911730989750e-01
1.578142911730989750e-01
1.616354604508979664e-01
1.616354604508979664e-01
1.589606419564386641e-01
1.589606419564386641e-01
1.750095529231945057e-01
1.750095529231945057e-01
1.750095529231945057e-01
1.761559037065341948e-01
1.761559037065341948e-01
1.562858234619793618e-01
1.562858234619793618e-01
1.562858234619793618e-01
1.673672143675964952e-01
1.673672143675964952e-01
1.868551776843714041e-01
1.868551776843714041e-01
1.868551776843714041e-01
1.803591899121131104e-01
1.803591899121131104e-01
1.914405808177302160e-01
1.914405808177302160e-01
1.914405808177302160e-01
1.899121131066106305e-01
1.899121131066106305e-01
1.960259839510890278e-01
1.960259839510890278e-01
1.960259839510890278e-01
2.009935040122277361e-01
2.009935040122277361e-01
2.063431410011463407e-01
2.063431410011463407e-01
2.063431410011463407e-01
2.090179594956056430e-01
2.090179594956056430e-01
2.116927779900649731e-01
2.116927779900649731e-01
2.116927779900649731e-01
2.212457011845624655e-01
2.212457011845624655e-01
2.204814673290026728e-01
2.204814673290026728e-01
2.204814673290026728e-01
2.399694306457776094e-01
2.399694306457776094e-01
2.403515475735575058e-01
2.403515475735575058e-01
2.403515475735575058e-01
2.575468093236530365e-01
2.575468093236530365e-01
2.453190676346962140e-01
2.453190676346962140e-01
2.453190676346962140e-01
2.583110431792128292e-01
2.583110431792128292e-01
2.674818494459304530e-01
2.674818494459304530e-01
2.674818494459304530e-01
2.690103171570500384e-01
2.690103171570500384e-01
2.724493695070691612e-01
2.724493695070691612e-01
2.724493695070691612e-01
2.877340466182651824e-01
2.877340466182651824e-01
2.911730989682843052e-01
2.911730989682843052e-01
2.911730989682843052e-01
2.949942682460833243e-01
2.949942682460833243e-01
3.026366068016813071e-01
3.026366068016813071e-01
3.026366068016813071e-01
3.011081390905617217e-01
3.011081390905617217e-01
2.953763851738632207e-01
2.953763851738632207e-01
2.953763851738632207e-01
3.129537638517386200e-01
3.129537638517386200e-01
3.148643484906381573e-01
3.148643484906381573e-01
3.148643484906381573e-01
3.087504776461597045e-01
3.087504776461597045e-01
3.198318685517768656e-01
3.198318685517768656e-01
3.198318685517768656e-01
3.144822315628582610e-01
3.144822315628582610e-01
3.160106992739778464e-01
3.160106992739778464e-01
3.160106992739778464e-01
3.160106992739778464e-01
3.160106992739778464e-01
3.347344287351929903e-01
3.347344287351929903e-01
3.347344287351929903e-01
3.228888039740160365e-01
3.228888039740160365e-01
3.274742071073748484e-01
3.274742071073748484e-01
3.274742071073748484e-01
3.339701948796331421e-01
3.339701948796331421e-01
3.335880779518532457e-01
3.335880779518532457e-01
3.335880779518532457e-01
3.500191058463890115e-01
3.500191058463890115e-01
3.481085212074894741e-01
3.481085212074894741e-01
3.481085212074894741e-01
3.439052350019105586e-01
3.439052350019105586e-01
3.549866259075277197e-01
3.549866259075277197e-01
3.549866259075277197e-01
3.492548719908292187e-01
3.492548719908292187e-01
3.576614444019869943e-01
3.576614444019869943e-01
3.576614444019869943e-01
3.595720290408865316e-01
3.595720290408865316e-01
3.515475735575085969e-01
3.515475735575085969e-01
3.515475735575085969e-01
3.630110813909055989e-01
3.630110813909055989e-01
3.584256782575467870e-01
3.584256782575467870e-01
3.584256782575467870e-01
3.538402751241879751e-01
3.538402751241879751e-01
3.534581581964080788e-01
3.534581581964080788e-01
3.534581581964080788e-01
3.706534199465036372e-01
3.706534199465036372e-01
3.683607183798242035e-01
3.683607183798242035e-01
3.683607183798242035e-01
3.595720290408865316e-01
3.595720290408865316e-01
3.725640045854031190e-01
3.725640045854031190e-01
3.725640045854031190e-01
3.588077951853266834e-01
3.588077951853266834e-01
3.588077951853266834e-01
3.588077951853266834e-01
3.588077951853266834e-01
3.641574321742453435e-01
3.641574321742453435e-01
3.725640045854031190e-01
3.725640045854031190e-01
3.725640045854031190e-01
3.721818876576232227e-01
3.721818876576232227e-01
3.588077951853266834e-01
3.588077951853266834e-01
3.588077951853266834e-01
3.633931983186854953e-01
3.633931983186854953e-01
3.664501337409247217e-01
3.664501337409247217e-01
3.664501337409247217e-01
3.721818876576232227e-01
3.721818876576232227e-01
3.672143675964845144e-01
3.672143675964845144e-01
3.672143675964845144e-01
3.683607183798242035e-01
3.683607183798242035e-01
3.561329766908674088e-01
3.561329766908674088e-01
3.561329766908674088e-01
3.630110813909055989e-01
3.630110813909055989e-01
3.691249522353840518e-01
3.691249522353840518e-01
3.691249522353840518e-01
3.626289644631257025e-01
3.626289644631257025e-01
3.568972105464272015e-01
3.568972105464272015e-01
3.568972105464272015e-01
3.511654566297287006e-01
3.511654566297287006e-01
3.641574321742453435e-01
3.641574321742453435e-01
3.641574321742453435e-01
3.633931983186854953e-01
3.633931983186854953e-01
3.561329766908674088e-01
3.561329766908674088e-01
3.561329766908674088e-01
3.622468475353458062e-01
3.622468475353458062e-01
3.515475735575085969e-01
3.515475735575085969e-01
3.515475735575085969e-01
3.481085212074894741e-01
3.481085212074894741e-01
3.477264042797095778e-01
3.477264042797095778e-01
3.477264042797095778e-01
3.538402751241879751e-01
3.538402751241879751e-01
3.507833397019488042e-01
3.507833397019488042e-01
3.385555980129919540e-01
3.385555980129919540e-01
3.385555980129919540e-01
3.534581581964080788e-01
3.534581581964080788e-01
3.339701948796331421e-01
3.339701948796331421e-01
3.339701948796331421e-01
3.358807795185326794e-01
3.358807795185326794e-01
3.408482995796713877e-01
3.408482995796713877e-01
3.408482995796713877e-01
3.404661826518914913e-01
3.404661826518914913e-01
3.305311425296140748e-01
3.305311425296140748e-01
3.305311425296140748e-01
3.381734810852120576e-01
3.381734810852120576e-01
3.244172716851356775e-01
3.244172716851356775e-01
3.244172716851356775e-01
3.293847917462743857e-01
3.293847917462743857e-01
3.118074130683989309e-01
3.118074130683989309e-01
3.118074130683989309e-01
3.102789453572793454e-01
3.102789453572793454e-01
3.156285823461979501e-01
3.156285823461979501e-01
3.156285823461979501e-01
3.087504776461597045e-01
3.087504776461597045e-01
3.034008406572410999e-01
3.034008406572410999e-01
3.034008406572410999e-01
3.106610622850592418e-01
3.106610622850592418e-01
3.118074130683989309e-01
3.118074130683989309e-01
3.118074130683989309e-01
2.991975544516621843e-01
2.991975544516621843e-01
3.079862437905999117e-01
3.079862437905999117e-01
3.079862437905999117e-01
2.938479174627435797e-01
2.938479174627435797e-01
2.953763851738632207e-01
2.953763851738632207e-01
2.953763851738632207e-01
2.988154375238822880e-01
2.988154375238822880e-01
2.831486434849063705e-01
2.831486434849063705e-01
2.831486434849063705e-01
2.797095911348873032e-01
2.797095911348873032e-01
2.881161635460450787e-01
2.881161635460450787e-01
2.881161635460450787e-01
2.820022927015666814e-01
2.820022927015666814e-01
2.762705387848681804e-01
2.762705387848681804e-01
2.762705387848681804e-01
2.739778372181887467e-01
2.739778372181887467e-01
2.842949942682460596e-01
2.842949942682460596e-01
2.842949942682460596e-01
2.781811234237676622e-01
2.781811234237676622e-01
2.751241880015284913e-01
2.751241880015284913e-01
2.751241880015284913e-01
2.579289262514329328e-01
2.579289262514329328e-01
2.632785632403515375e-01
2.632785632403515375e-01
2.632785632403515375e-01
2.575468093236530365e-01
2.575468093236530365e-01
2.556362246847535546e-01
2.556362246847535546e-01
2.556362246847535546e-01
2.648070309514711229e-01
2.648070309514711229e-01
2.521971723347344319e-01
2.521971723347344319e-01
2.521971723347344319e-01
2.594573939625525183e-01
2.594573939625525183e-01
2.594573939625525183e-01
2.594573939625525183e-01
2.594573939625525183e-01
2.525792892625143282e-01
2.525792892625143282e-01
2.525792892625143282e-01
2.525792892625143282e-01
2.525792892625143282e-01
2.533435231180741209e-01
2.533435231180741209e-01
2.483760030569354127e-01
2.483760030569354127e-01
2.483760030569354127e-01
2.407336645013374021e-01
2.407336645013374021e-01
2.460833014902560067e-01
2.460833014902560067e-01
2.460833014902560067e-01
2.372946121513183071e-01
2.372946121513183071e-01
2.449369507069163177e-01
2.449369507069163177e-01
2.449369507069163177e-01
2.350019105846389011e-01
2.350019105846389011e-01
2.399694306457776094e-01
2.399694306457776094e-01
2.399694306457776094e-01
2.277416889568207869e-01
2.277416889568207869e-01
2.384409629346579962e-01
2.384409629346579962e-01
2.384409629346579962e-01
2.342376767290791084e-01
2.342376767290791084e-01
2.365303782957585144e-01
2.365303782957585144e-01
2.365303782957585144e-01
2.265953381734810979e-01
2.265953381734810979e-01
2.246847535345815883e-01
2.246847535345815883e-01
2.246847535345815883e-01
2.285059228123805797e-01
2.285059228123805797e-01
2.231562858234619751e-01
2.231562858234619751e-01
2.231562858234619751e-01
2.174245319067634741e-01
2.174245319067634741e-01
2.212457011845624655e-01
2.212457011845624655e-01
2.212457011845624655e-01
2.273595720290408906e-01
2.273595720290408906e-01
2.235384027512418714e-01
2.235384027512418714e-01
2.235384027512418714e-01
2.273595720290408906e-01
2.273595720290408906e-01
2.265953381734810979e-01
2.265953381734810979e-01
2.265953381734810979e-01
2.243026366068016919e-01
2.243026366068016919e-01
2.231562858234619751e-01
2.231562858234619751e-01
2.231562858234619751e-01
2.277416889568207869e-01
2.277416889568207869e-01
2.105464272067252562e-01
2.105464272067252562e-01
2.105464272067252562e-01
2.124570118456247658e-01
2.124570118456247658e-01
2.292701566679404002e-01
2.292701566679404002e-01
2.292701566679404002e-01
2.059610240733664444e-01
2.059610240733664444e-01
2.094000764233855671e-01
2.094000764233855671e-01
2.094000764233855671e-01
2.120748949178448695e-01
2.120748949178448695e-01
2.132212457011845586e-01
2.132212457011845586e-01
2.132212457011845586e-01
2.051967902178066516e-01
2.051967902178066516e-01
2.132212457011845586e-01
2.132212457011845586e-01
2.132212457011845586e-01
2.078716087122659539e-01
2.078716087122659539e-01
1.960259839510890278e-01
1.960259839510890278e-01
1.960259839510890278e-01
2.025219717233473493e-01
2.025219717233473493e-01
1.964081008788689242e-01
1.964081008788689242e-01
1.964081008788689242e-01
2.067252579289262648e-01
2.067252579289262648e-01
2.044325563622468589e-01
2.044325563622468589e-01
2.036683225066870384e-01
2.036683225066870384e-01
2.036683225066870384e-01
1.929690485288498292e-01
1.929690485288498292e-01
1.910584638899503196e-01
1.910584638899503196e-01
1.910584638899503196e-01
2.094000764233855671e-01
2.094000764233855671e-01
1.918226977455101123e-01
1.918226977455101123e-01
1.918226977455101123e-01
1.948796331677493388e-01
1.948796331677493388e-01
1.975544516622086411e-01
1.975544516622086411e-01
1.975544516622086411e-01
1.948796331677493388e-01
1.948796331677493388e-01
2.040504394344669348e-01
2.040504394344669348e-01
2.040504394344669348e-01
1.872372946121513282e-01
1.872372946121513282e-01
2.006113870844478397e-01
2.006113870844478397e-01
2.006113870844478397e-01
1.979365685899885374e-01
1.979365685899885374e-01
1.834161253343523090e-01
1.834161253343523090e-01
1.834161253343523090e-01
1.899121131066106305e-01
1.899121131066106305e-01
1.803591899121131104e-01
1.803591899121131104e-01
1.803591899121131104e-01
1.922048146732900364e-01
1.922048146732900364e-01
1.975544516622086411e-01
1.975544516622086411e-01
1.975544516622086411e-01
1.857088269010317150e-01
1.857088269010317150e-01
1.925869316010699328e-01
1.925869316010699328e-01
1.925869316010699328e-01
1.807413068398930067e-01
1.807413068398930067e-01
1.818876576232326958e-01
1.818876576232326958e-01
1.818876576232326958e-01
1.899121131066106305e-01
1.899121131066106305e-01
1.887657623232709136e-01
1.887657623232709136e-01
1.887657623232709136e-01
1.872372946121513282e-01
1.872372946121513282e-01
1.868551776843714041e-01
1.868551776843714041e-01
1.868551776843714041e-01
1.761559037065341948e-01
1.761559037065341948e-01
1.708062667176155902e-01
1.708062667176155902e-01
1.708062667176155902e-01
1.730989682842949962e-01
1.730989682842949962e-01
1.734810852120748925e-01
1.734810852120748925e-01
1.734810852120748925e-01
1.857088269010317150e-01
1.857088269010317150e-01
1.723347344287352034e-01
1.723347344287352034e-01
1.723347344287352034e-01
1.677493312953763915e-01
1.677493312953763915e-01
1.761559037065341948e-01
1.761559037065341948e-01
1.761559037065341948e-01
1.700420328620557975e-01
1.700420328620557975e-01
1.654566297286969856e-01
1.654566297286969856e-01
1.654566297286969856e-01
1.730989682842949962e-01
1.730989682842949962e-01
1.708062667176155902e-01
1.708062667176155902e-01
1.708062667176155902e-01
1.757737867787542985e-01
1.757737867787542985e-01
1.780664883454337044e-01
1.780664883454337044e-01
1.780664883454337044e-01
1.681314482231562879e-01
1.681314482231562879e-01
1.658387466564768820e-01
1.658387466564768820e-01
1.658387466564768820e-01
1.654566297286969856e-01
1.654566297286969856e-01
1.604891096675582773e-01
1.604891096675582773e-01
1.604891096675582773e-01
1.700420328620557975e-01
1.700420328620557975e-01
1.685135651509361843e-01
1.685135651509361843e-01
1.685135651509361843e-01
1.734810852120748925e-01
1.734810852120748925e-01
1.620175773786778628e-01
1.620175773786778628e-01
1.620175773786778628e-01
1.727168513565150998e-01
1.727168513565150998e-01
1.574321742453190787e-01
1.574321742453190787e-01
1.574321742453190787e-01
1.639281620175773724e-01
1.639281620175773724e-01
1.578142911730989750e-01
1.578142911730989750e-01
1.578142911730989750e-01
1.608712265953381737e-01
1.608712265953381737e-01
1.704241497898356938e-01
1.704241497898356938e-01
1.704241497898356938e-01
1.536110049675200595e-01
1.536110049675200595e-01
1.562858234619793618e-01
1.562858234619793618e-01
1.562858234619793618e-01
1.677493312953763915e-01
1.677493312953763915e-01
1.578142911730989750e-01
1.578142911730989750e-01
1.578142911730989750e-01
1.551394726786396727e-01
1.551394726786396727e-01
1.620175773786778628e-01
1.620175773786778628e-01
1.620175773786778628e-01
1.494077187619411440e-01
1.494077187619411440e-01
1.578142911730989750e-01
1.578142911730989750e-01
1.578142911730989750e-01
1.543752388230798522e-01
1.543752388230798522e-01
1.478792510508215585e-01
1.478792510508215585e-01
1.478792510508215585e-01
1.494077187619411440e-01
1.494077187619411440e-01
1.551394726786396727e-01
1.551394726786396727e-01
1.551394726786396727e-01
1.608712265953381737e-01
1.608712265953381737e-01
1.471150171952617380e-01
1.471150171952617380e-01
1.471150171952617380e-01
1.620175773786778628e-01
1.620175773786778628e-01
1.547573557508597764e-01
1.547573557508597764e-01
1.547573557508597764e-01
1.585785250286587678e-01
1.585785250286587678e-01
1.509361864730607572e-01
1.509361864730607572e-01
1.509361864730607572e-01
1.604891096675582773e-01
1.604891096675582773e-01
1.501719526175009645e-01
1.501719526175009645e-01
1.501719526175009645e-01
1.566679403897592582e-01
1.566679403897592582e-01
1.497898356897210681e-01
1.497898356897210681e-01
1.497898356897210681e-01
1.517004203286205499e-01
1.517004203286205499e-01
1.436759648452426430e-01
1.436759648452426430e-01
1.436759648452426430e-01
1.436759648452426430e-01
1.436759648452426430e-01
1.551394726786396727e-01
1.551394726786396727e-01
1.551394726786396727e-01
1.455865494841421526e-01
1.455865494841421526e-01
1.597248758119984846e-01
1.597248758119984846e-01
1.482613679786014549e-01
1.482613679786014549e-01
1.482613679786014549e-01
1.551394726786396727e-01
1.551394726786396727e-01
1.539931218952999559e-01
1.539931218952999559e-01
1.539931218952999559e-01
1.608712265953381737e-01
1.608712265953381737e-01
1.536110049675200595e-01
1.536110049675200595e-01
1.536110049675200595e-01
1.390905617118838311e-01
1.390905617118838311e-01
1.425296140619029539e-01
1.425296140619029539e-01
1.425296140619029539e-01
1.509361864730607572e-01
1.509361864730607572e-01
1.379442109285441420e-01
1.379442109285441420e-01
1.379442109285441420e-01
1.463507833397019453e-01
1.463507833397019453e-01
1.604891096675582773e-01
1.604891096675582773e-01
1.604891096675582773e-01
1.528467711119602668e-01
1.528467711119602668e-01
1.406190294230034443e-01
1.406190294230034443e-01
1.406190294230034443e-01
1.352693924340848397e-01
1.352693924340848397e-01
1.364157432174245288e-01
1.364157432174245288e-01
1.364157432174245288e-01
1.444401987008024357e-01
1.444401987008024357e-01
1.532288880397401631e-01
1.532288880397401631e-01
1.532288880397401631e-01
1.452044325563622562e-01
1.452044325563622562e-01
1.452044325563622562e-01
1.452044325563622562e-01
1.452044325563622562e-01
1.413832632785632371e-01
1.413832632785632371e-01
1.547573557508597764e-01
1.547573557508597764e-01
1.547573557508597764e-01
1.383263278563240384e-01
1.383263278563240384e-01
1.444401987008024357e-01
1.444401987008024357e-01
1.444401987008024357e-01
1.463507833397019453e-01
1.463507833397019453e-01
1.421474971341230298e-01
1.421474971341230298e-01
1.421474971341230298e-01
1.325945739396255374e-01
1.325945739396255374e-01
1.486434849063813513e-01
1.486434849063813513e-01
1.486434849063813513e-01
1.509361864730607572e-01
1.509361864730607572e-01
1.322124570118456133e-01
1.322124570118456133e-01
1.322124570118456133e-01
1.421474971341230298e-01
1.421474971341230298e-01
1.497898356897210681e-01
1.497898356897210681e-01
1.497898356897210681e-01
1.455865494841421526e-01
1.455865494841421526e-01
1.310661062285059242e-01
1.310661062285059242e-01
1.310661062285059242e-01
1.383263278563240384e-01
1.383263278563240384e-01
1.574321742453190787e-01
1.574321742453190787e-01
1.574321742453190787e-01
1.490256018341612476e-01
1.490256018341612476e-01
1.490256018341612476e-01
1.490256018341612476e-01
1.490256018341612476e-01
1.333588077951853301e-01
1.333588077951853301e-01
1.398547955674436516e-01
1.398547955674436516e-01
1.398547955674436516e-01
1.310661062285059242e-01
1.310661062285059242e-01
1.509361864730607572e-01
1.509361864730607572e-01
1.509361864730607572e-01
1.406190294230034443e-01
1.406190294230034443e-01
1.501719526175009645e-01
1.501719526175009645e-01
1.501719526175009645e-01
1.360336262896446324e-01
1.360336262896446324e-01
1.524646541841803704e-01
1.524646541841803704e-01
1.524646541841803704e-01
1.497898356897210681e-01
1.497898356897210681e-01
1.421474971341230298e-01
1.421474971341230298e-01
1.421474971341230298e-01
1.379442109285441420e-01
1.379442109285441420e-01
1.505540695452808608e-01
1.505540695452808608e-01
1.505540695452808608e-01
1.448223156285823598e-01
1.448223156285823598e-01
1.520825372564004463e-01
1.520825372564004463e-01
1.520825372564004463e-01
1.387084447841039347e-01
1.387084447841039347e-01
1.497898356897210681e-01
1.497898356897210681e-01
1.497898356897210681e-01
1.398547955674436516e-01
1.398547955674436516e-01
1.585785250286587678e-01
1.585785250286587678e-01
1.585785250286587678e-01
1.474971341230416622e-01
1.474971341230416622e-01
1.562858234619793618e-01
1.562858234619793618e-01
1.562858234619793618e-01
1.639281620175773724e-01
1.639281620175773724e-01
1.593427588842185605e-01
1.593427588842185605e-01
1.593427588842185605e-01
1.673672143675964952e-01
1.673672143675964952e-01
1.570500573175391545e-01
1.570500573175391545e-01
1.570500573175391545e-01
1.730989682842949962e-01
1.730989682842949962e-01
1.841803591899121018e-01
1.841803591899121018e-01
1.841803591899121018e-01
1.761559037065341948e-01
1.761559037065341948e-01
1.853267099732518186e-01
1.853267099732518186e-01
1.853267099732518186e-01
1.857088269010317150e-01
1.857088269010317150e-01
2.078716087122659539e-01
2.078716087122659539e-01
2.078716087122659539e-01
2.086358425678257467e-01
2.086358425678257467e-01
2.051967902178066516e-01
2.051967902178066516e-01
2.051967902178066516e-01
2.136033626289644549e-01
2.136033626289644549e-01
2.170424149789835777e-01
2.170424149789835777e-01
2.170424149789835777e-01
2.296522735957202965e-01
2.296522735957202965e-01
2.418800152846771190e-01
2.418800152846771190e-01
2.418800152846771190e-01
2.437905999235766008e-01
2.437905999235766008e-01
2.422621322124570153e-01
2.422621322124570153e-01
2.422621322124570153e-01
2.598395108903324147e-01
2.598395108903324147e-01
2.571646923958731401e-01
2.571646923958731401e-01
2.571646923958731401e-01
2.609858616736721593e-01
2.609858616736721593e-01
2.686282002292701421e-01
2.686282002292701421e-01
2.686282002292701421e-01
2.697745510126098312e-01
2.697745510126098312e-01
2.881161635460450787e-01
2.881161635460450787e-01
2.881161635460450787e-01
2.839128773404661632e-01
2.839128773404661632e-01
2.842949942682460596e-01
2.842949942682460596e-01
2.869698127627053896e-01
2.869698127627053896e-01
2.869698127627053896e-01
2.888803974016048715e-01
2.888803974016048715e-01
3.110431792128391382e-01
3.110431792128391382e-01
3.110431792128391382e-01
3.011081390905617217e-01
3.011081390905617217e-01
3.202139854795567619e-01
3.202139854795567619e-01
3.202139854795567619e-01
3.137179977072984127e-01
3.137179977072984127e-01
3.186855177684371210e-01
3.186855177684371210e-01
3.186855177684371210e-01
3.156285823461979501e-01
3.156285823461979501e-01
3.190676346962170173e-01
3.190676346962170173e-01
3.190676346962170173e-01
3.240351547573557256e-01
3.240351547573557256e-01
3.209782193351165547e-01
3.209782193351165547e-01
3.209782193351165547e-01
3.374092472296522649e-01
3.374092472296522649e-01
3.431410011463507659e-01
3.431410011463507659e-01
3.431410011463507659e-01
3.312953763851738676e-01
3.312953763851738676e-01
3.442873519296905105e-01
3.442873519296905105e-01
3.442873519296905105e-01
3.354986625907527831e-01
3.354986625907527831e-01
3.519296904852884933e-01
3.519296904852884933e-01
3.519296904852884933e-01
3.588077951853266834e-01
3.588077951853266834e-01
3.488727550630492669e-01
3.488727550630492669e-01
3.488727550630492669e-01
3.645395491020252399e-01
3.645395491020252399e-01
3.565150936186473052e-01
3.565150936186473052e-01
3.565150936186473052e-01
3.626289644631257025e-01
3.626289644631257025e-01
3.500191058463890115e-01
3.500191058463890115e-01
3.500191058463890115e-01
3.641574321742453435e-01
3.641574321742453435e-01
3.542223920519679270e-01
3.542223920519679270e-01
3.542223920519679270e-01
3.660680168131448253e-01
3.660680168131448253e-01
3.542223920519679270e-01
3.542223920519679270e-01
3.542223920519679270e-01
3.599541459686664280e-01
3.599541459686664280e-01
3.599541459686664280e-01
3.599541459686664280e-01
3.599541459686664280e-01
3.584256782575467870e-01
3.584256782575467870e-01
3.611004967520061171e-01
3.611004967520061171e-01
3.611004967520061171e-01
3.782957585021016200e-01
3.782957585021016200e-01
3.588077951853266834e-01
3.588077951853266834e-01
3.588077951853266834e-01
3.626289644631257025e-01
3.626289644631257025e-01
3.565150936186473052e-01
3.565150936186473052e-01
3.565150936186473052e-01
3.675964845242644108e-01
3.675964845242644108e-01
3.557508597630875125e-01
3.557508597630875125e-01
3.557508597630875125e-01
3.553687428353076161e-01
3.553687428353076161e-01
3.672143675964845144e-01
3.672143675964845144e-01
3.672143675964845144e-01
3.672143675964845144e-01
3.672143675964845144e-01
3.687428353076040999e-01
3.687428353076040999e-01
3.687428353076040999e-01
3.576614444019869943e-01
3.576614444019869943e-01
3.584256782575467870e-01
3.584256782575467870e-01
3.584256782575467870e-01
3.668322506687046181e-01
3.668322506687046181e-01
3.656858998853649290e-01
3.656858998853649290e-01
3.656858998853649290e-01
3.698891860909438445e-01
3.698891860909438445e-01
3.519296904852884933e-01
3.519296904852884933e-01
3.519296904852884933e-01
3.614826136797860134e-01
3.614826136797860134e-01
3.664501337409247217e-01
3.664501337409247217e-01
3.664501337409247217e-01
3.591899121131066352e-01
3.591899121131066352e-01
3.542223920519679270e-01
3.542223920519679270e-01
3.542223920519679270e-01
3.542223920519679270e-01
3.542223920519679270e-01
3.538402751241879751e-01
3.538402751241879751e-01
3.538402751241879751e-01
3.477264042797095778e-01
3.477264042797095778e-01
3.633931983186854953e-01
3.633931983186854953e-01
3.633931983186854953e-01
3.446694688574704069e-01
3.446694688574704069e-01
3.450515857852503032e-01
3.450515857852503032e-01
3.450515857852503032e-01
3.549866259075277197e-01
3.549866259075277197e-01
3.450515857852503032e-01
3.450515857852503032e-01
3.450515857852503032e-01
3.419946503630110768e-01
3.419946503630110768e-01
3.347344287351929903e-01
3.347344287351929903e-01
3.347344287351929903e-01
3.496369889186091151e-01
3.496369889186091151e-01
3.366450133740924722e-01
3.366450133740924722e-01
3.366450133740924722e-01
3.354986625907527831e-01
3.354986625907527831e-01
3.247993886129155738e-01
3.247993886129155738e-01
3.247993886129155738e-01
3.263278563240351593e-01
3.263278563240351593e-01
3.305311425296140748e-01
3.305311425296140748e-01
3.305311425296140748e-01
3.290026748184944339e-01
3.290026748184944339e-01
3.163928162017577428e-01
3.163928162017577428e-01
3.163928162017577428e-01
3.209782193351165547e-01
3.209782193351165547e-01
3.232709209017959329e-01
3.232709209017959329e-01
3.232709209017959329e-01
3.079862437905999117e-01
3.079862437905999117e-01
3.037829575850209962e-01
3.037829575850209962e-01
3.037829575850209962e-01
3.014902560183416180e-01
3.014902560183416180e-01
3.049293083683607408e-01
3.049293083683607408e-01
3.049293083683607408e-01
2.949942682460833243e-01
2.949942682460833243e-01
2.934658005349636833e-01
2.934658005349636833e-01
2.934658005349636833e-01
3.037829575850209962e-01
3.037829575850209962e-01
2.877340466182651824e-01
2.877340466182651824e-01
2.877340466182651824e-01
2.892625143293847678e-01
2.892625143293847678e-01
2.942300343905234761e-01
2.942300343905234761e-01
2.884982804738249751e-01
2.884982804738249751e-01
2.884982804738249751e-01
2.770347726404279731e-01
2.770347726404279731e-01
2.881161635460450787e-01
2.881161635460450787e-01
2.881161635460450787e-01
2.774168895682078695e-01
2.774168895682078695e-01
2.617500955292319520e-01
2.617500955292319520e-01
2.617500955292319520e-01
2.755063049293083877e-01
2.755063049293083877e-01
2.728314864348490576e-01
2.728314864348490576e-01
2.728314864348490576e-01
2.651891478792510748e-01
2.651891478792510748e-01
2.602216278181123665e-01
2.602216278181123665e-01
2.602216278181123665e-01
2.644249140236912266e-01
2.644249140236912266e-01
2.560183416125334510e-01
2.560183416125334510e-01
2.560183416125334510e-01
2.430263660680168081e-01
2.430263660680168081e-01
2.506687046236148464e-01
2.506687046236148464e-01
2.506687046236148464e-01
2.651891478792510748e-01
2.651891478792510748e-01
2.479938861291555163e-01
2.479938861291555163e-01
2.479938861291555163e-01
2.575468093236530365e-01
2.575468093236530365e-01
2.521971723347344319e-01
2.521971723347344319e-01
2.521971723347344319e-01
2.483760030569354127e-01
2.483760030569354127e-01
2.495223538402751295e-01
2.495223538402751295e-01
2.495223538402751295e-01
2.392051967902178167e-01
2.392051967902178167e-01
2.468475353458158272e-01
2.468475353458158272e-01
2.468475353458158272e-01
2.357661444401986939e-01
2.357661444401986939e-01
2.369124952235384107e-01
2.369124952235384107e-01
2.369124952235384107e-01
2.395873137179977130e-01
2.395873137179977130e-01
2.460833014902560067e-01
2.460833014902560067e-01
2.460833014902560067e-01
2.346197936568590048e-01
2.346197936568590048e-01
2.342376767290791084e-01
2.342376767290791084e-01
2.342376767290791084e-01
2.273595720290408906e-01
2.273595720290408906e-01
2.262132212457011737e-01
2.262132212457011737e-01
2.262132212457011737e-01
2.319449751623997025e-01
2.319449751623997025e-01
2.319449751623997025e-01
2.319449751623997025e-01
2.319449751623997025e-01
2.388230798624378926e-01
2.388230798624378926e-01
2.250668704623614846e-01
2.250668704623614846e-01
2.250668704623614846e-01
2.231562858234619751e-01
2.231562858234619751e-01
2.281238058846006833e-01
2.281238058846006833e-01
2.281238058846006833e-01
2.174245319067634741e-01
2.174245319067634741e-01
2.189529996178830595e-01
2.189529996178830595e-01
2.189529996178830595e-01
2.143675964845242754e-01
2.143675964845242754e-01
2.281238058846006833e-01
2.281238058846006833e-01
2.281238058846006833e-01
2.212457011845624655e-01
2.212457011845624655e-01
2.204814673290026728e-01
2.204814673290026728e-01
2.204814673290026728e-01
2.174245319067634741e-01
2.174245319067634741e-01
2.147497134123041718e-01
2.147497134123041718e-01
2.147497134123041718e-01
2.174245319067634741e-01
2.174245319067634741e-01
2.101643102789453599e-01
2.101643102789453599e-01
2.101643102789453599e-01
2.086358425678257467e-01
2.086358425678257467e-01
2.151318303400840681e-01
2.151318303400840681e-01
2.151318303400840681e-01
2.220099350401222860e-01
2.220099350401222860e-01
2.090179594956056430e-01
2.090179594956056430e-01
2.090179594956056430e-01
2.208635842567825691e-01
2.208635842567825691e-01
2.109285441345051526e-01
2.109285441345051526e-01
2.109285441345051526e-01
2.116927779900649731e-01
2.116927779900649731e-01
2.158960641956438609e-01
2.158960641956438609e-01
2.158960641956438609e-01
2.170424149789835777e-01
2.170424149789835777e-01
2.143675964845242754e-01
2.143675964845242754e-01
2.143675964845242754e-01
2.116927779900649731e-01
2.116927779900649731e-01
2.105464272067252562e-01
2.105464272067252562e-01
2.105464272067252562e-01
2.006113870844478397e-01
2.006113870844478397e-01
2.074894917844860576e-01
2.074894917844860576e-01
2.074894917844860576e-01
1.979365685899885374e-01
1.979365685899885374e-01
2.059610240733664444e-01
2.059610240733664444e-01
2.059610240733664444e-01
2.090179594956056430e-01
2.090179594956056430e-01
2.021398547955674529e-01
2.021398547955674529e-01
2.021398547955674529e-01
2.002292701566679434e-01
2.002292701566679434e-01
2.090179594956056430e-01
2.090179594956056430e-01
2.090179594956056430e-01
1.914405808177302160e-01
1.914405808177302160e-01
1.929690485288498292e-01
1.929690485288498292e-01
1.929690485288498292e-01
1.990829193733282265e-01
1.990829193733282265e-01
1.933511654566297255e-01
1.933511654566297255e-01
1.933511654566297255e-01
1.967902178066488483e-01
1.967902178066488483e-01
2.055789071455865480e-01
2.055789071455865480e-01
2.055789071455865480e-01
1.929690485288498292e-01
1.929690485288498292e-01
1.895299961788307341e-01
1.895299961788307341e-01
1.895299961788307341e-01
1.868551776843714041e-01
1.868551776843714041e-01
1.956438670233091315e-01
1.956438670233091315e-01
1.956438670233091315e-01
1.922048146732900364e-01
1.922048146732900364e-01
1.899121131066106305e-01
1.899121131066106305e-01
1.899121131066106305e-01
2.006113870844478397e-01
2.006113870844478397e-01
1.944975162399694424e-01
1.944975162399694424e-01
1.944975162399694424e-01
1.925869316010699328e-01
1.925869316010699328e-01
1.803591899121131104e-01
1.803591899121131104e-01
1.803591899121131104e-01
1.914405808177302160e-01
1.914405808177302160e-01
1.964081008788689242e-01
1.964081008788689242e-01
1.815055406954527994e-01
1.815055406954527994e-01
1.815055406954527994e-01
1.807413068398930067e-01
1.807413068398930067e-01
1.914405808177302160e-01
1.914405808177302160e-01
1.914405808177302160e-01
1.971723347344287447e-01
1.971723347344287447e-01
1.849445930454719222e-01
1.849445930454719222e-01
1.849445930454719222e-01
1.788307222009934971e-01
1.788307222009934971e-01
1.815055406954527994e-01
1.815055406954527994e-01
1.815055406954527994e-01
1.929690485288498292e-01
1.929690485288498292e-01
1.837982422621322054e-01
1.837982422621322054e-01
1.837982422621322054e-01
1.845624761176920259e-01
1.845624761176920259e-01
1.776843714176538080e-01
1.776843714176538080e-01
1.776843714176538080e-01
1.834161253343523090e-01
1.834161253343523090e-01
1.700420328620557975e-01
1.700420328620557975e-01
1.700420328620557975e-01
1.719526175009552793e-01
1.719526175009552793e-01
1.757737867787542985e-01
1.757737867787542985e-01
1.757737867787542985e-01
1.765380206343140912e-01
1.765380206343140912e-01
1.730989682842949962e-01
1.730989682842949962e-01
1.730989682842949962e-01
1.769201375620939876e-01
1.769201375620939876e-01
1.788307222009934971e-01
1.788307222009934971e-01
1.788307222009934971e-01
1.750095529231945057e-01
1.750095529231945057e-01
1.715705005731753829e-01
1.715705005731753829e-01
1.715705005731753829e-01
1.669850974398165711e-01
1.669850974398165711e-01
1.692777990064959770e-01
1.692777990064959770e-01
1.692777990064959770e-01
1.604891096675582773e-01
1.604891096675582773e-01
1.662208635842567783e-01
1.662208635842567783e-01
1.662208635842567783e-01
1.639281620175773724e-01
1.639281620175773724e-01
1.627818112342376833e-01
1.627818112342376833e-01
1.627818112342376833e-01
1.627818112342376833e-01
1.627818112342376833e-01
1.604891096675582773e-01
1.604891096675582773e-01
1.604891096675582773e-01
1.616354604508979664e-01
1.616354604508979664e-01
1.639281620175773724e-01
1.639281620175773724e-01
1.639281620175773724e-01
1.566679403897592582e-01
1.566679403897592582e-01
1.536110049675200595e-01
1.536110049675200595e-01
1.536110049675200595e-01
1.738632021398547889e-01
1.738632021398547889e-01
1.547573557508597764e-01
1.547573557508597764e-01
1.547573557508597764e-01
1.715705005731753829e-01
1.715705005731753829e-01
1.551394726786396727e-01
1.551394726786396727e-01
1.551394726786396727e-01
1.532288880397401631e-01
1.532288880397401631e-01
1.555215896064195691e-01
1.555215896064195691e-01
1.555215896064195691e-01
1.581964081008788714e-01
1.581964081008788714e-01
1.520825372564004463e-01
1.520825372564004463e-01
1.520825372564004463e-01
1.494077187619411440e-01
1.494077187619411440e-01
1.547573557508597764e-01
1.547573557508597764e-01
1.547573557508597764e-01
1.501719526175009645e-01
1.501719526175009645e-01
1.612533435231180701e-01
1.612533435231180701e-01
1.612533435231180701e-01
1.650745128009170892e-01
1.650745128009170892e-01
1.662208635842567783e-01
1.662208635842567783e-01
1.662208635842567783e-01
1.643102789453572687e-01
1.643102789453572687e-01
1.669850974398165711e-01
1.669850974398165711e-01
1.669850974398165711e-01
1.555215896064195691e-01
1.555215896064195691e-01
1.608712265953381737e-01
1.608712265953381737e-01
1.608712265953381737e-01
1.513183034008406536e-01
1.513183034008406536e-01
1.620175773786778628e-01
1.620175773786778628e-01
1.620175773786778628e-01
1.616354604508979664e-01
1.616354604508979664e-01
1.658387466564768820e-01
1.658387466564768820e-01
1.658387466564768820e-01
1.474971341230416622e-01
1.474971341230416622e-01
1.490256018341612476e-01
1.490256018341612476e-01
1.490256018341612476e-01
1.440580817730225394e-01
1.440580817730225394e-01
1.478792510508215585e-01
1.478792510508215585e-01
1.478792510508215585e-01
1.589606419564386641e-01
1.589606419564386641e-01
1.536110049675200595e-01
1.536110049675200595e-01
1.536110049675200595e-01
1.486434849063813513e-01
1.486434849063813513e-01
1.559037065341994654e-01
1.559037065341994654e-01
1.559037065341994654e-01
1.555215896064195691e-01
1.555215896064195691e-01
1.578142911730989750e-01
1.578142911730989750e-01
1.578142911730989750e-01
1.589606419564386641e-01
1.589606419564386641e-01
1.471150171952617380e-01
1.471150171952617380e-01
1.471150171952617380e-01
1.551394726786396727e-01
1.551394726786396727e-01
1.574321742453190787e-01
1.574321742453190787e-01
1.574321742453190787e-01
1.482613679786014549e-01
1.482613679786014549e-01
1.578142911730989750e-01
1.578142911730989750e-01
1.578142911730989750e-01
1.494077187619411440e-01
1.494077187619411440e-01
1.536110049675200595e-01
1.536110049675200595e-01
1.536110049675200595e-01
1.539931218952999559e-01
1.539931218952999559e-01
1.551394726786396727e-01
1.551394726786396727e-01
1.551394726786396727e-01
1.455865494841421526e-01
1.455865494841421526e-01
1.517004203286205499e-01
1.517004203286205499e-01
1.517004203286205499e-01
1.444401987008024357e-01
1.444401987008024357e-01
1.417653802063431334e-01
1.417653802063431334e-01
1.417653802063431334e-01
1.547573557508597764e-01
1.547573557508597764e-01
1.413832632785632371e-01
1.413832632785632371e-01
1.486434849063813513e-01
1.486434849063813513e-01
1.486434849063813513e-01
1.578142911730989750e-01
1.578142911730989750e-01
1.413832632785632371e-01
1.413832632785632371e-01
1.413832632785632371e-01
1.517004203286205499e-01
1.517004203286205499e-01
1.406190294230034443e-01
1.406190294230034443e-01
1.406190294230034443e-01
1.517004203286205499e-01
1.517004203286205499e-01
1.517004203286205499e-01
1.517004203286205499e-01
1.517004203286205499e-01
1.623996943064577869e-01
1.623996943064577869e-01
1.379442109285441420e-01
1.379442109285441420e-01
1.379442109285441420e-01
1.471150171952617380e-01
1.471150171952617380e-01
1.387084447841039347e-01
1.387084447841039347e-01
1.387084447841039347e-01
1.459686664119220489e-01
1.459686664119220489e-01
1.474971341230416622e-01
1.474971341230416622e-01
1.474971341230416622e-01
1.413832632785632371e-01
1.413832632785632371e-01
1.474971341230416622e-01
1.474971341230416622e-01
1.474971341230416622e-01
1.532288880397401631e-01
1.532288880397401631e-01
1.337409247229652265e-01
1.337409247229652265e-01
1.337409247229652265e-01
1.463507833397019453e-01
1.463507833397019453e-01
1.383263278563240384e-01
1.383263278563240384e-01
1.383263278563240384e-01
1.578142911730989750e-01
1.578142911730989750e-01
1.505540695452808608e-01
1.505540695452808608e-01
1.505540695452808608e-01
1.432938479174627466e-01
1.432938479174627466e-01
1.440580817730225394e-01
1.440580817730225394e-01
1.440580817730225394e-01
1.581964081008788714e-01
1.581964081008788714e-01
1.593427588842185605e-01
1.593427588842185605e-01
1.593427588842185605e-01
1.597248758119984846e-01
1.597248758119984846e-01
1.627818112342376833e-01
1.627818112342376833e-01
1.627818112342376833e-01
1.608712265953381737e-01
1.608712265953381737e-01
1.723347344287352034e-01
1.723347344287352034e-01
1.723347344287352034e-01
1.578142911730989750e-01
1.578142911730989750e-01
1.761559037065341948e-01
1.761559037065341948e-01
1.761559037065341948e-01
1.669850974398165711e-01
1.669850974398165711e-01
1.700420328620557975e-01
1.700420328620557975e-01
1.700420328620557975e-01
1.818876576232326958e-01
1.818876576232326958e-01
1.956438670233091315e-01
1.956438670233091315e-01
1.956438670233091315e-01
1.887657623232709136e-01
1.887657623232709136e-01
1.975544516622086411e-01
1.975544516622086411e-01
1.975544516622086411e-01
2.071073748567061612e-01
2.071073748567061612e-01
2.063431410011463407e-01
2.063431410011463407e-01
2.063431410011463407e-01
2.094000764233855671e-01
2.094000764233855671e-01
2.300343905235001929e-01
2.300343905235001929e-01
2.300343905235001929e-01
2.243026366068016919e-01
2.243026366068016919e-01
2.208635842567825691e-01
2.208635842567825691e-01
2.208635842567825691e-01
2.304165074512800893e-01
2.304165074512800893e-01
2.350019105846389011e-01
2.350019105846389011e-01
2.350019105846389011e-01
2.571646923958731401e-01
2.571646923958731401e-01
2.590752770347726219e-01
2.590752770347726219e-01
2.590752770347726219e-01
2.537256400458540173e-01
2.537256400458540173e-01
2.678639663737103493e-01
2.678639663737103493e-01
2.678639663737103493e-01
2.674818494459304530e-01
2.674818494459304530e-01
2.827665265571264741e-01
2.827665265571264741e-01
2.827665265571264741e-01
2.739778372181887467e-01
2.739778372181887467e-01
2.827665265571264741e-01
2.827665265571264741e-01
2.827665265571264741e-01
2.835307604126862668e-01
2.835307604126862668e-01
2.869698127627053896e-01
2.869698127627053896e-01
2.869698127627053896e-01
2.949942682460833243e-01
2.949942682460833243e-01
3.041650745128008926e-01
3.041650745128008926e-01
3.041650745128008926e-01
3.056935422239205336e-01
3.056935422239205336e-01
3.160106992739778464e-01
3.160106992739778464e-01
3.160106992739778464e-01
3.121895299961788273e-01
3.121895299961788273e-01
