3.954910202521971785e-01
3.867023309132594511e-01
3.867023309132594511e-01
3.867023309132594511e-01
3.809705769965609501e-01
3.809705769965609501e-01
3.840275124188001765e-01
3.840275124188001765e-01
3.840275124188001765e-01
3.653037829575850326e-01
3.653037829575850326e-01
3.714176538020634299e-01
3.714176538020634299e-01
3.714176538020634299e-01
3.805884600687810537e-01
3.805884600687810537e-01
3.725640045854031190e-01
3.725640045854031190e-01
3.725640045854031190e-01
3.473442873519296814e-01
3.473442873519296814e-01
3.473442873519296814e-01
3.473442873519296814e-01
3.473442873519296814e-01
3.446694688574704069e-01
3.446694688574704069e-01
3.389377149407718504e-01
3.389377149407718504e-01
3.389377149407718504e-01
3.481085212074894741e-01
3.481085212074894741e-01
3.416125334352311804e-01
3.416125334352311804e-01
3.416125334352311804e-01
3.297669086740542821e-01
3.297669086740542821e-01
3.152464654184180537e-01
3.152464654184180537e-01
3.152464654184180537e-01
3.183034008406572246e-01
3.183034008406572246e-01
3.251815055406954702e-01
3.251815055406954702e-01
3.251815055406954702e-01
3.125716469239587236e-01
3.125716469239587236e-01
3.141001146350783091e-01
3.141001146350783091e-01
3.141001146350783091e-01
3.018723729461215144e-01
3.018723729461215144e-01
3.137179977072984127e-01
3.137179977072984127e-01
3.137179977072984127e-01
2.953763851738632207e-01
2.953763851738632207e-01
2.930836836071837870e-01
2.930836836071837870e-01
2.930836836071837870e-01
2.984333205961023916e-01
2.984333205961023916e-01
2.900267481849446161e-01
2.900267481849446161e-01
2.900267481849446161e-01
2.972869698127627025e-01
2.972869698127627025e-01
2.839128773404661632e-01
2.839128773404661632e-01
2.839128773404661632e-01
2.938479174627435797e-01
2.938479174627435797e-01
2.816201757737867850e-01
2.816201757737867850e-01
2.816201757737867850e-01
2.938479174627435797e-01
2.938479174627435797e-01
2.953763851738632207e-01
2.953763851738632207e-01
2.953763851738632207e-01
2.953763851738632207e-01
2.953763851738632207e-01
2.774168895682078695e-01
2.774168895682078695e-01
2.774168895682078695e-01
2.831486434849063705e-01
2.831486434849063705e-01
2.732136033626289540e-01
2.732136033626289540e-01
2.732136033626289540e-01
2.934658005349636833e-01
2.934658005349636833e-01
2.831486434849063705e-01
2.831486434849063705e-01
2.831486434849063705e-01
2.770347726404279731e-01
2.770347726404279731e-01
2.800917080626671996e-01
2.800917080626671996e-01
2.800917080626671996e-01
2.961406190294230134e-01
2.961406190294230134e-01
2.942300343905234761e-01
2.942300343905234761e-01
2.942300343905234761e-01
2.755063049293083877e-01
2.755063049293083877e-01
2.904088651127245124e-01
2.904088651127245124e-01
2.904088651127245124e-01
2.766526557126480768e-01
2.766526557126480768e-01
2.751241880015284913e-01
2.751241880015284913e-01
2.751241880015284913e-01
3.011081390905617217e-01
3.011081390905617217e-01
2.823844096293465777e-01
2.823844096293465777e-01
2.823844096293465777e-01
2.850592281238059078e-01
2.850592281238059078e-01
3.011081390905617217e-01
3.011081390905617217e-01
3.011081390905617217e-01
2.777990064959877659e-01
2.777990064959877659e-01
2.735957202904088503e-01
2.735957202904088503e-01
2.735957202904088503e-01
2.923194497516239942e-01
2.923194497516239942e-01
2.831486434849063705e-01
2.831486434849063705e-01
2.831486434849063705e-01
2.785632403515475586e-01
2.785632403515475586e-01
2.904088651127245124e-01
2.904088651127245124e-01
2.904088651127245124e-01
2.949942682460833243e-01
2.949942682460833243e-01
2.873519296904852860e-01
2.873519296904852860e-01
2.873519296904852860e-01
2.751241880015284913e-01
2.751241880015284913e-01
2.927015666794038906e-01
2.927015666794038906e-01
2.927015666794038906e-01
2.923194497516239942e-01
2.923194497516239942e-01
2.972869698127627025e-01
2.972869698127627025e-01
2.972869698127627025e-01
2.984333205961023916e-01
2.984333205961023916e-01
2.988154375238822880e-01
2.988154375238822880e-01
2.988154375238822880e-01
2.831486434849063705e-01
2.831486434849063705e-01
2.846771111960260114e-01
2.846771111960260114e-01
2.846771111960260114e-01
2.758884218570882840e-01
2.758884218570882840e-01
2.781811234237676622e-01
2.781811234237676622e-01
2.781811234237676622e-01
2.755063049293083877e-01
2.755063049293083877e-01
2.793274742071073513e-01
2.793274742071073513e-01
2.793274742071073513e-01
2.927015666794038906e-01
2.927015666794038906e-01
2.808559419182269923e-01
2.808559419182269923e-01
2.808559419182269923e-01
2.827665265571264741e-01
2.827665265571264741e-01
2.728314864348490576e-01
2.728314864348490576e-01
2.728314864348490576e-01
2.793274742071073513e-01
2.793274742071073513e-01
2.793274742071073513e-01
2.793274742071073513e-01
2.793274742071073513e-01
2.739778372181887467e-01
2.739778372181887467e-01
2.900267481849446161e-01
2.900267481849446161e-01
2.957585021016431170e-01
2.957585021016431170e-01
2.957585021016431170e-01
2.827665265571264741e-01
2.827665265571264741e-01
2.728314864348490576e-01
2.728314864348490576e-01
2.728314864348490576e-01
2.884982804738249751e-01
2.884982804738249751e-01
2.877340466182651824e-01
2.877340466182651824e-01
2.877340466182651824e-01
2.690103171570500384e-01
2.690103171570500384e-01
2.904088651127245124e-01
2.904088651127245124e-01
2.904088651127245124e-01
2.774168895682078695e-01
2.774168895682078695e-01
2.667176155903706603e-01
2.667176155903706603e-01
2.667176155903706603e-01
2.674818494459304530e-01
2.674818494459304530e-01
2.617500955292319520e-01
2.617500955292319520e-01
2.617500955292319520e-01
2.609858616736721593e-01
2.609858616736721593e-01
2.632785632403515375e-01
2.632785632403515375e-01
2.632785632403515375e-01
2.724493695070691612e-01
2.724493695070691612e-01
2.747420710737485394e-01
2.747420710737485394e-01
2.747420710737485394e-01
2.705387848681696794e-01
2.705387848681696794e-01
2.541077569736339137e-01
2.541077569736339137e-01
2.541077569736339137e-01
2.724493695070691612e-01
2.724493695070691612e-01
2.529614061902942246e-01
2.529614061902942246e-01
2.529614061902942246e-01
2.487581199847153091e-01
2.487581199847153091e-01
2.495223538402751295e-01
2.495223538402751295e-01
2.495223538402751295e-01
2.510508215513947428e-01
2.510508215513947428e-01
2.556362246847535546e-01
2.556362246847535546e-01
2.556362246847535546e-01
2.476117692013756200e-01
2.476117692013756200e-01
2.552541077569736583e-01
2.552541077569736583e-01
2.552541077569736583e-01
2.529614061902942246e-01
2.529614061902942246e-01
2.464654184180359309e-01
2.464654184180359309e-01
2.464654184180359309e-01
2.514329384791746391e-01
2.514329384791746391e-01
2.525792892625143282e-01
2.525792892625143282e-01
2.525792892625143282e-01
2.552541077569736583e-01
2.552541077569736583e-01
2.529614061902942246e-01
2.529614061902942246e-01
2.529614061902942246e-01
2.472296522735957236e-01
2.472296522735957236e-01
2.327092090179594952e-01
2.327092090179594952e-01
2.327092090179594952e-01
2.361482613679785902e-01
2.361482613679785902e-01
2.460833014902560067e-01
2.460833014902560067e-01
2.460833014902560067e-01
2.441727168513565249e-01
2.441727168513565249e-01
2.246847535345815883e-01
2.246847535345815883e-01
2.246847535345815883e-01
2.376767290790982035e-01
2.376767290790982035e-01
2.426442491402369117e-01
2.426442491402369117e-01
2.426442491402369117e-01
2.223920519679021823e-01
2.223920519679021823e-01
2.216278181123423896e-01
2.216278181123423896e-01
2.216278181123423896e-01
2.434084829957967044e-01
2.434084829957967044e-01
2.445548337791364213e-01
2.445548337791364213e-01
2.445548337791364213e-01
2.216278181123423896e-01
2.216278181123423896e-01
2.158960641956438609e-01
2.158960641956438609e-01
2.158960641956438609e-01
2.338555598012991843e-01
2.338555598012991843e-01
2.311807413068398820e-01
2.311807413068398820e-01
2.311807413068398820e-01
2.239205196790217678e-01
2.239205196790217678e-01
2.300343905235001929e-01
2.300343905235001929e-01
2.300343905235001929e-01
2.120748949178448695e-01
2.120748949178448695e-01
2.143675964845242754e-01
2.143675964845242754e-01
2.143675964845242754e-01
2.174245319067634741e-01
2.174245319067634741e-01
2.090179594956056430e-01
2.090179594956056430e-01
2.090179594956056430e-01
2.136033626289644549e-01
2.136033626289644549e-01
2.120748949178448695e-01
2.120748949178448695e-01
2.120748949178448695e-01
2.300343905235001929e-01
2.300343905235001929e-01
2.101643102789453599e-01
2.101643102789453599e-01
2.101643102789453599e-01
2.265953381734810979e-01
2.265953381734810979e-01
2.292701566679404002e-01
2.292701566679404002e-01
2.292701566679404002e-01
2.162781811234237572e-01
2.162781811234237572e-01
2.067252579289262648e-01
2.067252579289262648e-01
2.067252579289262648e-01
2.051967902178066516e-01
2.051967902178066516e-01
2.101643102789453599e-01
2.101643102789453599e-01
2.101643102789453599e-01
2.116927779900649731e-01
2.116927779900649731e-01
2.063431410011463407e-01
2.063431410011463407e-01
2.063431410011463407e-01
2.243026366068016919e-01
2.243026366068016919e-01
2.132212457011845586e-01
2.132212457011845586e-01
2.132212457011845586e-01
2.082537256400458503e-01
2.082537256400458503e-01
2.113106610622850490e-01
2.113106610622850490e-01
2.113106610622850490e-01
2.109285441345051526e-01
2.109285441345051526e-01
2.074894917844860576e-01
2.074894917844860576e-01
2.074894917844860576e-01
2.097821933511654635e-01
2.097821933511654635e-01
2.090179594956056430e-01
2.090179594956056430e-01
2.090179594956056430e-01
1.922048146732900364e-01
1.922048146732900364e-01
1.952617500955292351e-01
1.952617500955292351e-01
1.952617500955292351e-01
2.074894917844860576e-01
2.074894917844860576e-01
2.044325563622468589e-01
2.044325563622468589e-01
2.044325563622468589e-01
2.059610240733664444e-01
2.059610240733664444e-01
2.097821933511654635e-01
2.097821933511654635e-01
2.097821933511654635e-01
2.082537256400458503e-01
2.082537256400458503e-01
1.880015284677111209e-01
1.880015284677111209e-01
2.051967902178066516e-01
2.051967902178066516e-01
2.051967902178066516e-01
1.876194115399312246e-01
1.876194115399312246e-01
1.899121131066106305e-01
1.899121131066106305e-01
1.899121131066106305e-01
2.055789071455865480e-01
2.055789071455865480e-01
2.048146732900267553e-01
2.048146732900267553e-01
2.048146732900267553e-01
2.086358425678257467e-01
2.086358425678257467e-01
2.078716087122659539e-01
2.078716087122659539e-01
2.078716087122659539e-01
2.071073748567061612e-01
2.071073748567061612e-01
1.987008024455483302e-01
1.987008024455483302e-01
1.987008024455483302e-01
1.922048146732900364e-01
1.922048146732900364e-01
2.074894917844860576e-01
2.074894917844860576e-01
2.074894917844860576e-01
1.929690485288498292e-01
1.929690485288498292e-01
1.918226977455101123e-01
1.918226977455101123e-01
1.918226977455101123e-01
2.017577378677875566e-01
2.017577378677875566e-01
1.830340084065724127e-01
1.830340084065724127e-01
1.830340084065724127e-01
2.021398547955674529e-01
2.021398547955674529e-01
2.063431410011463407e-01
2.063431410011463407e-01
2.063431410011463407e-01
1.979365685899885374e-01
1.979365685899885374e-01
1.880015284677111209e-01
1.880015284677111209e-01
1.880015284677111209e-01
1.853267099732518186e-01
1.853267099732518186e-01
1.845624761176920259e-01
1.845624761176920259e-01
1.845624761176920259e-01
1.933511654566297255e-01
1.933511654566297255e-01
1.784486052732136008e-01
1.784486052732136008e-01
1.784486052732136008e-01
1.795949560565533176e-01
1.795949560565533176e-01
1.868551776843714041e-01
1.868551776843714041e-01
1.868551776843714041e-01
1.956438670233091315e-01
1.956438670233091315e-01
1.857088269010317150e-01
1.857088269010317150e-01
1.857088269010317150e-01
1.975544516622086411e-01
1.975544516622086411e-01
1.780664883454337044e-01
1.780664883454337044e-01
1.780664883454337044e-01
1.960259839510890278e-01
1.960259839510890278e-01
1.895299961788307341e-01
1.895299961788307341e-01
1.895299961788307341e-01
1.849445930454719222e-01
1.849445930454719222e-01
1.845624761176920259e-01
1.845624761176920259e-01
1.845624761176920259e-01
1.857088269010317150e-01
1.857088269010317150e-01
2.006113870844478397e-01
2.006113870844478397e-01
2.006113870844478397e-01
1.803591899121131104e-01
1.803591899121131104e-01
2.021398547955674529e-01
2.021398547955674529e-01
2.021398547955674529e-01
1.849445930454719222e-01
1.849445930454719222e-01
2.063431410011463407e-01
2.063431410011463407e-01
2.063431410011463407e-01
2.013756209400076325e-01
2.013756209400076325e-01
1.998471532288880470e-01
1.998471532288880470e-01
1.998471532288880470e-01
1.948796331677493388e-01
1.948796331677493388e-01
1.952617500955292351e-01
1.952617500955292351e-01
1.952617500955292351e-01
1.941153993121895183e-01
1.941153993121895183e-01
2.055789071455865480e-01
2.055789071455865480e-01
2.055789071455865480e-01
2.132212457011845586e-01
2.132212457011845586e-01
2.212457011845624655e-01
2.212457011845624655e-01
2.212457011845624655e-01
2.216278181123423896e-01
2.216278181123423896e-01
2.216278181123423896e-01
2.216278181123423896e-01
2.216278181123423896e-01
2.281238058846006833e-01
2.281238058846006833e-01
2.212457011845624655e-01
2.212457011845624655e-01
2.212457011845624655e-01
2.181887657623232668e-01
2.181887657623232668e-01
2.353840275124187975e-01
2.353840275124187975e-01
2.353840275124187975e-01
2.445548337791364213e-01
2.445548337791364213e-01
2.571646923958731401e-01
2.571646923958731401e-01
2.571646923958731401e-01
2.548719908291937064e-01
2.548719908291937064e-01
2.609858616736721593e-01
2.609858616736721593e-01
2.609858616736721593e-01
2.854413450515858042e-01
2.854413450515858042e-01
2.770347726404279731e-01
2.770347726404279731e-01
2.770347726404279731e-01
3.030187237294612035e-01
3.030187237294612035e-01
2.969048528849828061e-01
2.969048528849828061e-01
2.969048528849828061e-01
3.163928162017577428e-01
3.163928162017577428e-01
3.293847917462743857e-01
3.293847917462743857e-01
3.293847917462743857e-01
3.351165456629728867e-01
3.351165456629728867e-01
3.404661826518914913e-01
3.404661826518914913e-01
3.404661826518914913e-01
3.553687428353076161e-01
3.553687428353076161e-01
3.641574321742453435e-01
3.641574321742453435e-01
3.641574321742453435e-01
3.782957585021016200e-01
3.782957585021016200e-01
3.916698509743981593e-01
3.916698509743981593e-01
3.916698509743981593e-01
3.821169277799006392e-01
3.821169277799006392e-01
4.134505158578525297e-01
4.134505158578525297e-01
4.134505158578525297e-01
3.974016048910966603e-01
3.974016048910966603e-01
4.279709591134887026e-01
4.279709591134887026e-01
4.279709591134887026e-01
4.207107374856706161e-01
4.207107374856706161e-01
4.241497898356897389e-01
4.241497898356897389e-01
4.241497898356897389e-01
4.382881161635460709e-01
4.382881161635460709e-01
4.398165838746656564e-01
4.398165838746656564e-01
4.398165838746656564e-01
4.558654948414214703e-01
4.558654948414214703e-01
4.638899503247994049e-01
4.638899503247994049e-01
4.638899503247994049e-01
4.570118456247611594e-01
4.570118456247611594e-01
4.784103935804356333e-01
4.784103935804356333e-01
4.585403133358808003e-01
4.585403133358808003e-01
4.585403133358808003e-01
4.711501719526174914e-01
4.711501719526174914e-01
4.879633167749331535e-01
4.879633167749331535e-01
4.879633167749331535e-01
4.914023691249522208e-01
4.914023691249522208e-01
4.971341230416507218e-01
4.971341230416507218e-01
4.971341230416507218e-01
4.871990829193733052e-01
4.871990829193733052e-01
4.914023691249522208e-01
4.914023691249522208e-01
4.914023691249522208e-01
4.860527321360336162e-01
4.860527321360336162e-01
4.898739014138326353e-01
4.898739014138326353e-01
4.898739014138326353e-01
5.017195261750095892e-01
5.017195261750095892e-01
4.978983568972105700e-01
4.978983568972105700e-01
4.978983568972105700e-01
5.047764615972487601e-01
5.047764615972487601e-01
5.051585785250286564e-01
5.051585785250286564e-01
5.051585785250286564e-01
5.078333970194879310e-01
5.078333970194879310e-01
5.009552923194497964e-01
5.009552923194497964e-01
5.009552923194497964e-01
5.005731753916699001e-01
5.005731753916699001e-01
4.902560183416125317e-01
4.902560183416125317e-01
4.902560183416125317e-01
4.956056553305311363e-01
4.956056553305311363e-01
4.956056553305311363e-01
4.956056553305311363e-01
4.956056553305311363e-01
4.837600305693542380e-01
4.837600305693542380e-01
4.852884982804738234e-01
4.852884982804738234e-01
4.852884982804738234e-01
4.952235384027512399e-01
4.952235384027512399e-01
4.829957967137944452e-01
4.829957967137944452e-01
4.829957967137944452e-01
4.784103935804356333e-01
4.784103935804356333e-01
4.757355750859763033e-01
4.757355750859763033e-01
4.757355750859763033e-01
4.849063813526939271e-01
4.849063813526939271e-01
4.757355750859763033e-01
4.757355750859763033e-01
4.757355750859763033e-01
4.799388612915552188e-01
4.799388612915552188e-01
4.642720672525793013e-01
4.642720672525793013e-01
4.642720672525793013e-01
4.745892243026366142e-01
4.745892243026366142e-01
4.814673290026748043e-01
4.814673290026748043e-01
4.814673290026748043e-01
4.837600305693542380e-01
4.837600305693542380e-01
4.665647688192586795e-01
4.665647688192586795e-01
4.665647688192586795e-01
4.711501719526174914e-01
4.711501719526174914e-01
4.570118456247611594e-01
4.570118456247611594e-01
4.570118456247611594e-01
4.661826518914787831e-01
4.661826518914787831e-01
4.566297286969812630e-01
4.566297286969812630e-01
4.566297286969812630e-01
4.459304547191440538e-01
4.459304547191440538e-01
4.562476117692013666e-01
4.562476117692013666e-01
4.562476117692013666e-01
4.535727932747420921e-01
4.535727932747420921e-01
4.359954145968666372e-01
4.359954145968666372e-01
4.359954145968666372e-01
4.337027130301872591e-01
4.337027130301872591e-01
4.340848299579671554e-01
4.340848299579671554e-01
4.340848299579671554e-01
4.291173098968284472e-01
4.291173098968284472e-01
4.302636606801681363e-01
4.302636606801681363e-01
4.302636606801681363e-01
4.466946885747038465e-01
4.466946885747038465e-01
4.424914023691249310e-01
4.424914023691249310e-01
4.424914023691249310e-01
4.199465036301108234e-01
4.199465036301108234e-01
4.291173098968284472e-01
4.291173098968284472e-01
4.291173098968284472e-01
4.417271685135651382e-01
4.417271685135651382e-01
4.214749713412304089e-01
4.214749713412304089e-01
4.214749713412304089e-01
4.180359189912112861e-01
4.180359189912112861e-01
4.188001528467711343e-01
4.188001528467711343e-01
4.188001528467711343e-01
4.081008788689338695e-01
4.081008788689338695e-01
4.241497898356897389e-01
4.241497898356897389e-01
4.241497898356897389e-01
4.061902942300343877e-01
4.061902942300343877e-01
4.134505158578525297e-01
4.134505158578525297e-01
4.134505158578525297e-01
4.088651127244937178e-01
4.088651127244937178e-01
4.027512418800152649e-01
4.027512418800152649e-01
4.027512418800152649e-01
4.069545280855941805e-01
4.069545280855941805e-01
4.084829957967138214e-01
4.084829957967138214e-01
4.084829957967138214e-01
3.828811616354604319e-01
3.828811616354604319e-01
3.996943064577760940e-01
3.996943064577760940e-01
3.996943064577760940e-01
3.817348108521207428e-01
3.817348108521207428e-01
3.966373710355368676e-01
3.966373710355368676e-01
3.966373710355368676e-01
3.809705769965609501e-01
3.809705769965609501e-01
3.882307986243790365e-01
3.882307986243790365e-01
3.882307986243790365e-01
3.763851738632021382e-01
3.763851738632021382e-01
3.653037829575850326e-01
3.653037829575850326e-01
3.653037829575850326e-01
3.763851738632021382e-01
3.763851738632021382e-01
3.710355368742835336e-01
3.710355368742835336e-01
3.710355368742835336e-01
3.611004967520061171e-01
3.611004967520061171e-01
3.458158196408100959e-01
3.458158196408100959e-01
3.458158196408100959e-01
3.664501337409247217e-01
3.664501337409247217e-01
3.439052350019105586e-01
3.439052350019105586e-01
3.439052350019105586e-01
3.504012227741689078e-01
3.504012227741689078e-01
3.484906381352693705e-01
3.484906381352693705e-01
3.484906381352693705e-01
3.473442873519296814e-01
3.473442873519296814e-01
3.274742071073748484e-01
3.274742071073748484e-01
3.274742071073748484e-01
3.419946503630110768e-01
3.419946503630110768e-01
3.225066870462361401e-01
3.225066870462361401e-01
3.225066870462361401e-01
3.259457393962552629e-01
3.259457393962552629e-01
3.091325945739396008e-01
3.091325945739396008e-01
3.064577760794803263e-01
3.064577760794803263e-01
3.064577760794803263e-01
3.186855177684371210e-01
3.186855177684371210e-01
3.125716469239587236e-01
3.125716469239587236e-01
3.125716469239587236e-01
3.076041268628200154e-01
3.076041268628200154e-01
3.049293083683607408e-01
3.049293083683607408e-01
3.049293083683607408e-01
2.930836836071837870e-01
2.930836836071837870e-01
2.816201757737867850e-01
2.816201757737867850e-01
2.816201757737867850e-01
2.930836836071837870e-01
2.930836836071837870e-01
3.007260221627818253e-01
3.007260221627818253e-01
3.007260221627818253e-01
2.991975544516621843e-01
2.991975544516621843e-01
2.751241880015284913e-01
2.751241880015284913e-01
2.751241880015284913e-01
2.858234619793657005e-01
2.858234619793657005e-01
2.785632403515475586e-01
2.785632403515475586e-01
2.785632403515475586e-01
2.927015666794038906e-01
2.927015666794038906e-01
2.789453572793274549e-01
2.789453572793274549e-01
2.789453572793274549e-01
2.667176155903706603e-01
2.667176155903706603e-01
2.846771111960260114e-01
2.846771111960260114e-01
2.846771111960260114e-01
2.674818494459304530e-01
2.674818494459304530e-01
2.701566679403897830e-01
2.701566679403897830e-01
2.701566679403897830e-01
2.755063049293083877e-01
2.755063049293083877e-01
2.621322124570118484e-01
2.621322124570118484e-01
2.621322124570118484e-01
2.728314864348490576e-01
2.728314864348490576e-01
2.732136033626289540e-01
2.732136033626289540e-01
2.732136033626289540e-01
2.812380588460068886e-01
2.812380588460068886e-01
2.705387848681696794e-01
2.705387848681696794e-01
2.705387848681696794e-01
2.777990064959877659e-01
2.777990064959877659e-01
2.774168895682078695e-01
2.774168895682078695e-01
2.774168895682078695e-01
2.632785632403515375e-01
2.632785632403515375e-01
2.724493695070691612e-01
2.724493695070691612e-01
2.724493695070691612e-01
2.831486434849063705e-01
2.831486434849063705e-01
2.613679786014520556e-01
2.613679786014520556e-01
2.613679786014520556e-01
2.820022927015666814e-01
2.820022927015666814e-01
2.720672525792892649e-01
2.720672525792892649e-01
2.720672525792892649e-01
2.777990064959877659e-01
2.777990064959877659e-01
2.739778372181887467e-01
2.739778372181887467e-01
2.739778372181887467e-01
2.655712648070309712e-01
2.655712648070309712e-01
2.667176155903706603e-01
2.667176155903706603e-01
2.667176155903706603e-01
2.644249140236912266e-01
2.644249140236912266e-01
2.659533817348108675e-01
2.659533817348108675e-01
2.659533817348108675e-01
2.854413450515858042e-01
2.854413450515858042e-01
2.682460833014902457e-01
2.682460833014902457e-01
2.682460833014902457e-01
2.644249140236912266e-01
2.644249140236912266e-01
2.827665265571264741e-01
2.827665265571264741e-01
2.827665265571264741e-01
2.644249140236912266e-01
2.644249140236912266e-01
2.739778372181887467e-01
2.739778372181887467e-01
2.739778372181887467e-01
2.705387848681696794e-01
2.705387848681696794e-01
2.770347726404279731e-01
2.770347726404279731e-01
2.770347726404279731e-01
2.632785632403515375e-01
2.632785632403515375e-01
2.816201757737867850e-01
2.816201757737867850e-01
2.816201757737867850e-01
2.747420710737485394e-01
2.747420710737485394e-01
2.823844096293465777e-01
2.823844096293465777e-01
2.823844096293465777e-01
2.625143293847917447e-01
2.625143293847917447e-01
2.701566679403897830e-01
2.701566679403897830e-01
2.701566679403897830e-01
2.632785632403515375e-01
2.632785632403515375e-01
2.724493695070691612e-01
2.724493695070691612e-01
2.724493695070691612e-01
2.625143293847917447e-01
2.625143293847917447e-01
2.586931601069927256e-01
2.586931601069927256e-01
2.586931601069927256e-01
2.567825754680932437e-01
2.567825754680932437e-01
2.781811234237676622e-01
2.781811234237676622e-01
2.781811234237676622e-01
2.560183416125334510e-01
2.560183416125334510e-01
2.697745510126098312e-01
2.697745510126098312e-01
2.697745510126098312e-01
2.693924340848299348e-01
2.693924340848299348e-01
2.762705387848681804e-01
2.762705387848681804e-01
2.762705387848681804e-01
2.606037447458922629e-01
2.606037447458922629e-01
2.632785632403515375e-01
2.632785632403515375e-01
2.632785632403515375e-01
2.716851356515093685e-01
2.716851356515093685e-01
2.598395108903324147e-01
2.598395108903324147e-01
2.598395108903324147e-01
2.670997325181505566e-01
2.670997325181505566e-01
2.479938861291555163e-01
2.479938861291555163e-01
2.479938861291555163e-01
2.525792892625143282e-01
2.525792892625143282e-01
2.537256400458540173e-01
2.537256400458540173e-01
2.537256400458540173e-01
2.445548337791364213e-01
2.445548337791364213e-01
2.483760030569354127e-01
2.483760030569354127e-01
2.483760030569354127e-01
2.502865876958349500e-01
2.502865876958349500e-01
2.422621322124570153e-01
2.422621322124570153e-01
2.422621322124570153e-01
2.392051967902178167e-01
2.392051967902178167e-01
2.365303782957585144e-01
2.365303782957585144e-01
2.365303782957585144e-01
2.395873137179977130e-01
2.395873137179977130e-01
2.464654184180359309e-01
2.464654184180359309e-01
2.464654184180359309e-01
2.502865876958349500e-01
2.502865876958349500e-01
2.521971723347344319e-01
2.521971723347344319e-01
2.372946121513183071e-01
2.372946121513183071e-01
2.372946121513183071e-01
2.327092090179594952e-01
2.327092090179594952e-01
2.338555598012991843e-01
2.338555598012991843e-01
2.338555598012991843e-01
2.468475353458158272e-01
2.468475353458158272e-01
2.315628582346198061e-01
2.315628582346198061e-01
2.315628582346198061e-01
2.311807413068398820e-01
2.311807413068398820e-01
2.304165074512800893e-01
2.304165074512800893e-01
2.304165074512800893e-01
2.399694306457776094e-01
2.399694306457776094e-01
2.422621322124570153e-01
2.422621322124570153e-01
2.422621322124570153e-01
2.174245319067634741e-01
2.174245319067634741e-01
2.200993504012227764e-01
2.200993504012227764e-01
2.200993504012227764e-01
2.411157814291172985e-01
2.411157814291172985e-01
2.330913259457393916e-01
2.330913259457393916e-01
2.330913259457393916e-01
2.311807413068398820e-01
2.311807413068398820e-01
2.334734428735192879e-01
2.334734428735192879e-01
2.334734428735192879e-01
2.193351165456629837e-01
2.193351165456629837e-01
2.158960641956438609e-01
2.158960641956438609e-01
2.158960641956438609e-01
2.090179594956056430e-01
2.090179594956056430e-01
2.243026366068016919e-01
2.243026366068016919e-01
2.243026366068016919e-01
2.101643102789453599e-01
2.101643102789453599e-01
2.212457011845624655e-01
2.212457011845624655e-01
2.212457011845624655e-01
2.059610240733664444e-01
2.059610240733664444e-01
2.078716087122659539e-01
2.078716087122659539e-01
2.078716087122659539e-01
2.013756209400076325e-01
2.013756209400076325e-01
2.158960641956438609e-01
2.158960641956438609e-01
2.158960641956438609e-01
2.170424149789835777e-01
2.170424149789835777e-01
2.097821933511654635e-01
2.097821933511654635e-01
2.097821933511654635e-01
2.197172334734428800e-01
2.197172334734428800e-01
2.017577378677875566e-01
2.017577378677875566e-01
2.017577378677875566e-01
1.933511654566297255e-01
1.933511654566297255e-01
2.162781811234237572e-01
2.162781811234237572e-01
2.162781811234237572e-01
2.139854795567443513e-01
2.139854795567443513e-01
2.032862055789071420e-01
2.032862055789071420e-01
2.032862055789071420e-01
2.074894917844860576e-01
2.074894917844860576e-01
1.918226977455101123e-01
1.918226977455101123e-01
1.918226977455101123e-01
2.051967902178066516e-01
2.051967902178066516e-01
2.029040886511272457e-01
2.029040886511272457e-01
2.029040886511272457e-01
2.048146732900267553e-01
2.048146732900267553e-01
2.036683225066870384e-01
2.036683225066870384e-01
2.036683225066870384e-01
2.048146732900267553e-01
2.048146732900267553e-01
1.910584638899503196e-01
1.910584638899503196e-01
1.910584638899503196e-01
1.895299961788307341e-01
1.895299961788307341e-01
1.971723347344287447e-01
1.971723347344287447e-01
1.971723347344287447e-01
1.941153993121895183e-01
1.941153993121895183e-01
1.853267099732518186e-01
1.853267099732518186e-01
1.853267099732518186e-01
1.929690485288498292e-01
1.929690485288498292e-01
1.979365685899885374e-01
1.979365685899885374e-01
1.979365685899885374e-01
1.769201375620939876e-01
1.769201375620939876e-01
2.009935040122277361e-01
2.009935040122277361e-01
2.009935040122277361e-01
1.765380206343140912e-01
1.765380206343140912e-01
1.849445930454719222e-01
1.849445930454719222e-01
1.849445930454719222e-01
1.902942300343905269e-01
1.902942300343905269e-01
1.899121131066106305e-01
1.899121131066106305e-01
1.899121131066106305e-01
1.784486052732136008e-01
1.784486052732136008e-01
1.941153993121895183e-01
1.941153993121895183e-01
1.941153993121895183e-01
1.941153993121895183e-01
1.941153993121895183e-01
1.761559037065341948e-01
1.761559037065341948e-01
1.761559037065341948e-01
1.952617500955292351e-01
1.952617500955292351e-01
1.941153993121895183e-01
1.941153993121895183e-01
1.941153993121895183e-01
1.864730607565915077e-01
1.864730607565915077e-01
1.948796331677493388e-01
1.948796331677493388e-01
1.948796331677493388e-01
1.784486052732136008e-01
1.784486052732136008e-01
1.834161253343523090e-01
1.834161253343523090e-01
1.834161253343523090e-01
1.929690485288498292e-01
1.929690485288498292e-01
1.883836453954910173e-01
1.883836453954910173e-01
1.883836453954910173e-01
1.715705005731753829e-01
1.715705005731753829e-01
1.784486052732136008e-01
1.784486052732136008e-01
1.784486052732136008e-01
1.685135651509361843e-01
1.685135651509361843e-01
1.719526175009552793e-01
1.719526175009552793e-01
1.719526175009552793e-01
1.773022544898739117e-01
1.773022544898739117e-01
1.681314482231562879e-01
1.681314482231562879e-01
1.681314482231562879e-01
1.646923958731371929e-01
1.646923958731371929e-01
1.834161253343523090e-01
1.834161253343523090e-01
1.834161253343523090e-01
1.891478792510508100e-01
1.891478792510508100e-01
1.857088269010317150e-01
1.857088269010317150e-01
1.857088269010317150e-01
1.727168513565150998e-01
1.727168513565150998e-01
1.623996943064577869e-01
1.623996943064577869e-01
1.623996943064577869e-01
1.646923958731371929e-01
1.646923958731371929e-01
1.669850974398165711e-01
1.669850974398165711e-01
1.669850974398165711e-01
1.639281620175773724e-01
1.639281620175773724e-01
1.708062667176155902e-01
1.708062667176155902e-01
1.708062667176155902e-01
1.807413068398930067e-01
1.807413068398930067e-01
1.643102789453572687e-01
1.643102789453572687e-01
1.654566297286969856e-01
1.654566297286969856e-01
1.654566297286969856e-01
1.849445930454719222e-01
1.849445930454719222e-01
1.654566297286969856e-01
1.654566297286969856e-01
1.654566297286969856e-01
1.620175773786778628e-01
1.620175773786778628e-01
1.662208635842567783e-01
1.662208635842567783e-01
1.662208635842567783e-01
1.811234237676729031e-01
1.811234237676729031e-01
1.669850974398165711e-01
1.669850974398165711e-01
1.669850974398165711e-01
1.646923958731371929e-01
1.646923958731371929e-01
1.627818112342376833e-01
1.627818112342376833e-01
1.627818112342376833e-01
1.662208635842567783e-01
1.662208635842567783e-01
1.872372946121513282e-01
1.872372946121513282e-01
1.872372946121513282e-01
1.868551776843714041e-01
1.868551776843714041e-01
1.807413068398930067e-01
1.807413068398930067e-01
1.807413068398930067e-01
1.826518914787925163e-01
1.826518914787925163e-01
1.811234237676729031e-01
1.811234237676729031e-01
1.811234237676729031e-01
1.880015284677111209e-01
1.880015284677111209e-01
1.788307222009934971e-01
1.788307222009934971e-01
1.788307222009934971e-01
1.780664883454337044e-01
1.780664883454337044e-01
1.929690485288498292e-01
1.929690485288498292e-01
1.929690485288498292e-01
1.723347344287352034e-01
1.723347344287352034e-01
1.906763469621704232e-01
1.906763469621704232e-01
1.906763469621704232e-01
1.795949560565533176e-01
1.795949560565533176e-01
1.952617500955292351e-01
1.952617500955292351e-01
1.952617500955292351e-01
1.857088269010317150e-01
1.857088269010317150e-01
1.929690485288498292e-01
1.929690485288498292e-01
1.929690485288498292e-01
1.864730607565915077e-01
1.864730607565915077e-01
1.883836453954910173e-01
1.883836453954910173e-01
1.883836453954910173e-01
2.017577378677875566e-01
2.017577378677875566e-01
2.032862055789071420e-01
2.032862055789071420e-01
2.032862055789071420e-01
2.185708826901031632e-01
2.185708826901031632e-01
2.243026366068016919e-01
2.243026366068016919e-01
2.243026366068016919e-01
2.223920519679021823e-01
2.223920519679021823e-01
2.246847535345815883e-01
2.246847535345815883e-01
2.246847535345815883e-01
2.357661444401986939e-01
2.357661444401986939e-01
2.560183416125334510e-01
2.560183416125334510e-01
2.560183416125334510e-01
2.602216278181123665e-01
2.602216278181123665e-01
2.751241880015284913e-01
2.751241880015284913e-01
2.751241880015284913e-01
2.762705387848681804e-01
2.762705387848681804e-01
2.797095911348873032e-01
2.797095911348873032e-01
2.797095911348873032e-01
2.915552158960642015e-01
2.915552158960642015e-01
2.988154375238822880e-01
2.988154375238822880e-01
2.988154375238822880e-01
3.202139854795567619e-01
3.202139854795567619e-01
3.087504776461597045e-01
3.087504776461597045e-01
3.087504776461597045e-01
3.354986625907527831e-01
3.354986625907527831e-01
3.343523118074130940e-01
3.343523118074130940e-01
3.343523118074130940e-01
3.370271303018723685e-01
3.370271303018723685e-01
3.477264042797095778e-01
3.477264042797095778e-01
3.477264042797095778e-01
3.572793274742070979e-01
3.572793274742070979e-01
3.748567061520825527e-01
3.748567061520825527e-01
3.748567061520825527e-01
3.740924722965227600e-01
3.740924722965227600e-01
3.794421092854413646e-01
3.794421092854413646e-01
3.794421092854413646e-01
3.981658387466564530e-01
3.981658387466564530e-01
4.061902942300343877e-01
4.061902942300343877e-01
4.061902942300343877e-01
4.081008788689338695e-01
4.081008788689338695e-01
4.317921283912877217e-01
4.317921283912877217e-01
4.317921283912877217e-01
4.306457776079480326e-01
4.306457776079480326e-01
4.386702330913259673e-01
4.386702330913259673e-01
4.386702330913259673e-01
4.359954145968666372e-01
4.359954145968666372e-01
4.291173098968284472e-01
4.291173098968284472e-01
4.291173098968284472e-01
4.489873901413832802e-01
4.489873901413832802e-01
4.417271685135651382e-01
4.417271685135651382e-01
4.417271685135651382e-01
4.581581964081009040e-01
4.581581964081009040e-01
4.581581964081009040e-01
4.581581964081009040e-01
4.581581964081009040e-01
4.692395873137180096e-01
4.692395873137180096e-01
4.604508979747802822e-01
4.604508979747802822e-01
4.604508979747802822e-01
4.615972487581199712e-01
4.615972487581199712e-01
4.703859380970576987e-01
4.703859380970576987e-01
4.703859380970576987e-01
4.795567443637753224e-01
4.795567443637753224e-01
4.715322888803973878e-01
4.715322888803973878e-01
4.715322888803973878e-01
4.749713412304165105e-01
4.749713412304165105e-01
4.615972487581199712e-01
4.615972487581199712e-01
4.615972487581199712e-01
4.768819258693159924e-01
4.768819258693159924e-01
4.661826518914787831e-01
4.661826518914787831e-01
4.661826518914787831e-01
4.795567443637753224e-01
4.795567443637753224e-01
4.638899503247994049e-01
4.638899503247994049e-01
4.638899503247994049e-01
4.814673290026748043e-01
4.814673290026748043e-01
4.749713412304165105e-01
4.749713412304165105e-01
4.749713412304165105e-01
4.726786396637370768e-01
4.726786396637370768e-01
4.547191440580817812e-01
4.547191440580817812e-01
4.547191440580817812e-01
4.661826518914787831e-01
4.661826518914787831e-01
4.665647688192586795e-01
4.665647688192586795e-01
4.562476117692013666e-01
4.562476117692013666e-01
4.562476117692013666e-01
4.604508979747802822e-01
4.604508979747802822e-01
4.508979747802827620e-01
4.508979747802827620e-01
4.508979747802827620e-01
4.455483377913641574e-01
4.455483377913641574e-01
4.631257164692396122e-01
4.631257164692396122e-01
4.631257164692396122e-01
4.524264424914023475e-01
4.524264424914023475e-01
4.413450515857852419e-01
4.413450515857852419e-01
4.413450515857852419e-01
4.428735192969048273e-01
4.428735192969048273e-01
4.386702330913259673e-01
4.386702330913259673e-01
4.386702330913259673e-01
4.379059992357661191e-01
4.379059992357661191e-01
4.382881161635460709e-01
4.382881161635460709e-01
4.382881161635460709e-01
4.268246083301490135e-01
4.268246083301490135e-01
4.329384791746274108e-01
4.329384791746274108e-01
4.329384791746274108e-01
4.283530760412686544e-01
4.283530760412686544e-01
4.180359189912112861e-01
4.180359189912112861e-01
4.180359189912112861e-01
4.195643867023309270e-01
4.195643867023309270e-01
4.176538020634313897e-01
4.176538020634313897e-01
4.176538020634313897e-01
4.210928544134505125e-01
4.210928544134505125e-01
4.214749713412304089e-01
4.214749713412304089e-01
4.214749713412304089e-01
4.210928544134505125e-01
4.210928544134505125e-01
4.035154757355751132e-01
4.035154757355751132e-01
4.035154757355751132e-01
4.019870080244554722e-01
4.019870080244554722e-01
4.023691249522353686e-01
4.023691249522353686e-01
4.023691249522353686e-01
4.115399312189529923e-01
4.115399312189529923e-01
3.954910202521971785e-01
3.954910202521971785e-01
3.954910202521971785e-01
4.000764233855559904e-01
4.000764233855559904e-01
3.901413832632785739e-01
3.901413832632785739e-01
3.901413832632785739e-01
3.920519679021780557e-01
3.920519679021780557e-01
3.905235001910584702e-01
3.905235001910584702e-01
3.905235001910584702e-01
3.985479556744364049e-01
3.985479556744364049e-01
3.916698509743981593e-01
3.916698509743981593e-01
3.916698509743981593e-01
3.939625525410775930e-01
3.939625525410775930e-01
3.779136415743217237e-01
3.779136415743217237e-01
3.779136415743217237e-01
3.863202139854795547e-01
3.863202139854795547e-01
3.710355368742835336e-01
3.710355368742835336e-01
3.710355368742835336e-01
3.779136415743217237e-01
3.779136415743217237e-01
3.737103553687428081e-01
3.737103553687428081e-01
3.737103553687428081e-01
3.771494077187619309e-01
3.771494077187619309e-01
3.844096293465800729e-01
3.844096293465800729e-01
3.844096293465800729e-01
3.572793274742070979e-01
3.572793274742070979e-01
3.721818876576232227e-01
3.721818876576232227e-01
3.721818876576232227e-01
3.576614444019869943e-01
3.576614444019869943e-01
3.542223920519679270e-01
3.542223920519679270e-01
3.542223920519679270e-01
3.614826136797860134e-01
3.614826136797860134e-01
3.461979365685899923e-01
3.461979365685899923e-01
3.461979365685899923e-01
3.435231180741306622e-01
3.435231180741306622e-01
3.523118074130683897e-01
3.523118074130683897e-01
3.523118074130683897e-01
3.442873519296905105e-01
3.442873519296905105e-01
3.247993886129155738e-01
3.247993886129155738e-01
3.247993886129155738e-01
3.339701948796331421e-01
3.339701948796331421e-01
3.354986625907527831e-01
3.354986625907527831e-01
3.354986625907527831e-01
3.183034008406572246e-01
3.183034008406572246e-01
3.240351547573557256e-01
3.240351547573557256e-01
3.240351547573557256e-01
3.114252961406190345e-01
3.114252961406190345e-01
3.240351547573557256e-01
3.240351547573557256e-01
3.240351547573557256e-01
2.988154375238822880e-01
2.988154375238822880e-01
2.972869698127627025e-01
2.972869698127627025e-01
2.972869698127627025e-01
2.961406190294230134e-01
2.961406190294230134e-01
2.923194497516239942e-01
2.923194497516239942e-01
2.923194497516239942e-01
2.911730989682843052e-01
2.911730989682843052e-01
2.907909820405044088e-01
2.907909820405044088e-01
2.907909820405044088e-01
2.957585021016431170e-01
2.957585021016431170e-01
2.915552158960642015e-01
2.915552158960642015e-01
2.915552158960642015e-01
2.705387848681696794e-01
2.705387848681696794e-01
2.865876958349254933e-01
2.865876958349254933e-01
2.865876958349254933e-01
2.659533817348108675e-01
2.659533817348108675e-01
2.617500955292319520e-01
2.617500955292319520e-01
2.617500955292319520e-01
2.812380588460068886e-01
2.812380588460068886e-01
2.674818494459304530e-01
2.674818494459304530e-01
2.674818494459304530e-01
2.655712648070309712e-01
2.655712648070309712e-01
2.537256400458540173e-01
2.537256400458540173e-01
2.537256400458540173e-01
2.678639663737103493e-01
2.678639663737103493e-01
2.518150554069545355e-01
2.518150554069545355e-01
2.518150554069545355e-01
2.678639663737103493e-01
2.678639663737103493e-01
2.487581199847153091e-01
2.487581199847153091e-01
2.487581199847153091e-01
2.632785632403515375e-01
2.632785632403515375e-01
2.418800152846771190e-01
2.418800152846771190e-01
2.418800152846771190e-01
2.457011845624761104e-01
2.457011845624761104e-01
2.457011845624761104e-01
2.457011845624761104e-01
2.457011845624761104e-01
2.590752770347726219e-01
2.590752770347726219e-01
2.564004585403133474e-01
2.564004585403133474e-01
2.395873137179977130e-01
2.395873137179977130e-01
2.395873137179977130e-01
2.567825754680932437e-01
2.567825754680932437e-01
2.487581199847153091e-01
2.487581199847153091e-01
2.487581199847153091e-01
2.460833014902560067e-01
2.460833014902560067e-01
2.606037447458922629e-01
2.606037447458922629e-01
2.606037447458922629e-01
2.460833014902560067e-01
2.460833014902560067e-01
2.418800152846771190e-01
2.418800152846771190e-01
2.418800152846771190e-01
2.426442491402369117e-01
2.426442491402369117e-01
2.441727168513565249e-01
2.441727168513565249e-01
2.441727168513565249e-01
2.449369507069163177e-01
2.449369507069163177e-01
2.499044707680550259e-01
2.499044707680550259e-01
2.499044707680550259e-01
2.449369507069163177e-01
2.449369507069163177e-01
2.460833014902560067e-01
2.460833014902560067e-01
2.460833014902560067e-01
2.434084829957967044e-01
2.434084829957967044e-01
2.491402369124952332e-01
2.491402369124952332e-01
2.491402369124952332e-01
2.449369507069163177e-01
2.449369507069163177e-01
2.384409629346579962e-01
2.384409629346579962e-01
2.384409629346579962e-01
2.602216278181123665e-01
2.602216278181123665e-01
2.602216278181123665e-01
2.602216278181123665e-01
2.602216278181123665e-01
2.499044707680550259e-01
2.499044707680550259e-01
2.521971723347344319e-01
2.521971723347344319e-01
2.521971723347344319e-01
2.560183416125334510e-01
2.560183416125334510e-01
2.617500955292319520e-01
2.617500955292319520e-01
2.617500955292319520e-01
2.644249140236912266e-01
2.644249140236912266e-01
2.388230798624378926e-01
2.388230798624378926e-01
2.388230798624378926e-01
2.453190676346962140e-01
2.453190676346962140e-01
2.399694306457776094e-01
2.399694306457776094e-01
2.399694306457776094e-01
2.472296522735957236e-01
2.472296522735957236e-01
2.399694306457776094e-01
2.399694306457776094e-01
2.399694306457776094e-01
2.518150554069545355e-01
2.518150554069545355e-01
2.472296522735957236e-01
2.472296522735957236e-01
2.472296522735957236e-01
2.491402369124952332e-01
2.491402369124952332e-01
2.453190676346962140e-01
2.453190676346962140e-01
2.453190676346962140e-01
2.567825754680932437e-01
2.567825754680932437e-01
2.548719908291937064e-01
2.548719908291937064e-01
2.548719908291937064e-01
2.395873137179977130e-01
2.395873137179977130e-01
2.567825754680932437e-01
2.567825754680932437e-01
2.567825754680932437e-01
2.552541077569736583e-01
2.552541077569736583e-01
2.376767290790982035e-01
2.376767290790982035e-01
2.376767290790982035e-01
2.399694306457776094e-01
2.399694306457776094e-01
2.392051967902178167e-01
2.392051967902178167e-01
2.392051967902178167e-01
2.392051967902178167e-01
2.392051967902178167e-01
2.376767290790982035e-01
2.376767290790982035e-01
2.376767290790982035e-01
2.460833014902560067e-01
2.460833014902560067e-01
2.376767290790982035e-01
2.376767290790982035e-01
2.376767290790982035e-01
2.250668704623614846e-01
2.250668704623614846e-01
2.246847535345815883e-01
2.246847535345815883e-01
2.246847535345815883e-01
2.411157814291172985e-01
2.411157814291172985e-01
2.346197936568590048e-01
2.346197936568590048e-01
2.346197936568590048e-01
2.307986243790599856e-01
2.307986243790599856e-01
2.365303782957585144e-01
2.365303782957585144e-01
2.365303782957585144e-01
2.296522735957202965e-01
2.296522735957202965e-01
2.208635842567825691e-01
2.208635842567825691e-01
2.208635842567825691e-01
2.281238058846006833e-01
2.281238058846006833e-01
2.311807413068398820e-01
2.311807413068398820e-01
2.311807413068398820e-01
2.307986243790599856e-01
2.307986243790599856e-01
2.158960641956438609e-01
2.158960641956438609e-01
2.158960641956438609e-01
2.113106610622850490e-01
2.113106610622850490e-01
2.120748949178448695e-01
2.120748949178448695e-01
2.120748949178448695e-01
2.315628582346198061e-01
2.315628582346198061e-01
2.185708826901031632e-01
2.185708826901031632e-01
2.185708826901031632e-01
2.139854795567443513e-01
2.139854795567443513e-01
2.116927779900649731e-01
2.116927779900649731e-01
2.116927779900649731e-01
2.277416889568207869e-01
2.277416889568207869e-01
2.105464272067252562e-01
2.105464272067252562e-01
2.105464272067252562e-01
2.155139472678639645e-01
2.155139472678639645e-01
2.051967902178066516e-01
2.051967902178066516e-01
2.051967902178066516e-01
1.960259839510890278e-01
1.960259839510890278e-01
2.151318303400840681e-01
2.151318303400840681e-01
2.151318303400840681e-01
2.136033626289644549e-01
2.136033626289644549e-01
1.975544516622086411e-01
1.975544516622086411e-01
1.975544516622086411e-01
1.956438670233091315e-01
1.956438670233091315e-01
1.975544516622086411e-01
1.975544516622086411e-01
1.975544516622086411e-01
1.902942300343905269e-01
1.902942300343905269e-01
1.964081008788689242e-01
1.964081008788689242e-01
1.964081008788689242e-01
2.051967902178066516e-01
2.051967902178066516e-01
2.082537256400458503e-01
2.082537256400458503e-01
2.082537256400458503e-01
1.906763469621704232e-01
1.906763469621704232e-01
1.887657623232709136e-01
1.887657623232709136e-01
1.887657623232709136e-01
1.948796331677493388e-01
1.948796331677493388e-01
1.899121131066106305e-01
1.899121131066106305e-01
1.899121131066106305e-01
1.914405808177302160e-01
1.914405808177302160e-01
1.910584638899503196e-01
1.910584638899503196e-01
2.036683225066870384e-01
2.036683225066870384e-01
2.036683225066870384e-01
1.822697745510126199e-01
1.822697745510126199e-01
1.807413068398930067e-01
1.807413068398930067e-01
1.807413068398930067e-01
2.021398547955674529e-01
2.021398547955674529e-01
2.021398547955674529e-01
2.021398547955674529e-01
2.021398547955674529e-01
2.006113870844478397e-01
2.006113870844478397e-01
1.792128391287733935e-01
1.792128391287733935e-01
1.792128391287733935e-01
1.937332823844096219e-01
1.937332823844096219e-01
1.975544516622086411e-01
1.975544516622086411e-01
1.975544516622086411e-01
1.929690485288498292e-01
1.929690485288498292e-01
1.727168513565150998e-01
1.727168513565150998e-01
1.727168513565150998e-01
1.742453190676346853e-01
1.742453190676346853e-01
1.899121131066106305e-01
1.899121131066106305e-01
1.899121131066106305e-01
1.914405808177302160e-01
1.914405808177302160e-01
1.750095529231945057e-01
1.750095529231945057e-01
1.750095529231945057e-01
1.883836453954910173e-01
1.883836453954910173e-01
1.753916698509744021e-01
1.753916698509744021e-01
1.753916698509744021e-01
1.738632021398547889e-01
1.738632021398547889e-01
1.883836453954910173e-01
1.883836453954910173e-01
1.883836453954910173e-01
1.646923958731371929e-01
1.646923958731371929e-01
1.818876576232326958e-01
1.818876576232326958e-01
1.818876576232326958e-01
1.868551776843714041e-01
1.868551776843714041e-01
1.723347344287352034e-01
1.723347344287352034e-01
1.723347344287352034e-01
1.815055406954527994e-01
1.815055406954527994e-01
1.780664883454337044e-01
1.780664883454337044e-01
1.780664883454337044e-01
1.738632021398547889e-01
1.738632021398547889e-01
1.815055406954527994e-01
1.815055406954527994e-01
1.815055406954527994e-01
1.669850974398165711e-01
1.669850974398165711e-01
1.700420328620557975e-01
1.700420328620557975e-01
1.700420328620557975e-01
1.646923958731371929e-01
1.646923958731371929e-01
1.730989682842949962e-01
1.730989682842949962e-01
1.730989682842949962e-01
1.677493312953763915e-01
1.677493312953763915e-01
1.666029805120366747e-01
1.666029805120366747e-01
1.666029805120366747e-01
1.792128391287733935e-01
1.792128391287733935e-01
1.788307222009934971e-01
1.788307222009934971e-01
1.788307222009934971e-01
1.750095529231945057e-01
1.750095529231945057e-01
1.593427588842185605e-01
1.593427588842185605e-01
1.593427588842185605e-01
1.612533435231180701e-01
1.612533435231180701e-01
1.784486052732136008e-01
1.784486052732136008e-01
1.784486052732136008e-01
1.639281620175773724e-01
1.639281620175773724e-01
1.730989682842949962e-01
1.730989682842949962e-01
1.730989682842949962e-01
1.604891096675582773e-01
1.604891096675582773e-01
1.700420328620557975e-01
1.700420328620557975e-01
1.700420328620557975e-01
1.738632021398547889e-01
1.738632021398547889e-01
1.494077187619411440e-01
1.494077187619411440e-01
1.494077187619411440e-01
1.501719526175009645e-01
1.501719526175009645e-01
1.635460450897974760e-01
1.635460450897974760e-01
1.635460450897974760e-01
1.589606419564386641e-01
1.589606419564386641e-01
1.589606419564386641e-01
1.589606419564386641e-01
1.589606419564386641e-01
1.524646541841803704e-01
1.524646541841803704e-01
1.566679403897592582e-01
1.566679403897592582e-01
1.566679403897592582e-01
1.539931218952999559e-01
1.539931218952999559e-01
1.501719526175009645e-01
1.501719526175009645e-01
1.501719526175009645e-01
1.520825372564004463e-01
1.520825372564004463e-01
1.524646541841803704e-01
1.524646541841803704e-01
1.524646541841803704e-01
1.654566297286969856e-01
1.654566297286969856e-01
1.570500573175391545e-01
1.570500573175391545e-01
1.570500573175391545e-01
1.597248758119984846e-01
1.597248758119984846e-01
1.513183034008406536e-01
1.513183034008406536e-01
1.513183034008406536e-01
1.646923958731371929e-01
1.646923958731371929e-01
1.474971341230416622e-01
1.474971341230416622e-01
1.474971341230416622e-01
1.650745128009170892e-01
1.650745128009170892e-01
1.601069927397783810e-01
1.601069927397783810e-01
1.601069927397783810e-01
1.490256018341612476e-01
1.490256018341612476e-01
1.669850974398165711e-01
1.669850974398165711e-01
1.669850974398165711e-01
1.501719526175009645e-01
1.501719526175009645e-01
1.574321742453190787e-01
1.574321742453190787e-01
1.574321742453190787e-01
1.528467711119602668e-01
1.528467711119602668e-01
1.509361864730607572e-01
1.509361864730607572e-01
1.509361864730607572e-01
1.627818112342376833e-01
1.627818112342376833e-01
1.551394726786396727e-01
1.551394726786396727e-01
1.551394726786396727e-01
1.547573557508597764e-01
1.547573557508597764e-01
1.639281620175773724e-01
1.639281620175773724e-01
1.639281620175773724e-01
1.463507833397019453e-01
1.463507833397019453e-01
1.467329002674818417e-01
1.467329002674818417e-01
1.467329002674818417e-01
1.547573557508597764e-01
1.547573557508597764e-01
1.574321742453190787e-01
1.574321742453190787e-01
1.574321742453190787e-01
1.635460450897974760e-01
1.635460450897974760e-01
1.666029805120366747e-01
1.666029805120366747e-01
1.666029805120366747e-01
1.654566297286969856e-01
1.654566297286969856e-01
1.539931218952999559e-01
1.539931218952999559e-01
1.597248758119984846e-01
1.597248758119984846e-01
1.597248758119984846e-01
1.708062667176155902e-01
1.708062667176155902e-01
1.646923958731371929e-01
1.646923958731371929e-01
1.646923958731371929e-01
1.673672143675964952e-01
1.673672143675964952e-01
1.704241497898356938e-01
1.704241497898356938e-01
1.704241497898356938e-01
1.639281620175773724e-01
1.639281620175773724e-01
1.780664883454337044e-01
1.780664883454337044e-01
1.780664883454337044e-01
1.662208635842567783e-01
1.662208635842567783e-01
1.669850974398165711e-01
1.669850974398165711e-01
1.669850974398165711e-01
1.627818112342376833e-01
1.627818112342376833e-01
1.738632021398547889e-01
1.738632021398547889e-01
1.738632021398547889e-01
1.960259839510890278e-01
1.960259839510890278e-01
1.841803591899121018e-01
1.841803591899121018e-01
1.841803591899121018e-01
2.036683225066870384e-01
2.036683225066870384e-01
2.036683225066870384e-01
2.036683225066870384e-01
2.036683225066870384e-01
1.994650363011081506e-01
1.994650363011081506e-01
2.178066488345433704e-01
2.178066488345433704e-01
2.178066488345433704e-01
2.342376767290791084e-01
2.342376767290791084e-01
2.235384027512418714e-01
2.235384027512418714e-01
2.235384027512418714e-01
2.265953381734810979e-01
2.265953381734810979e-01
2.422621322124570153e-01
2.422621322124570153e-01
2.422621322124570153e-01
2.636606801681314338e-01
2.636606801681314338e-01
2.648070309514711229e-01
2.648070309514711229e-01
2.648070309514711229e-01
2.816201757737867850e-01
2.816201757737867850e-01
2.785632403515475586e-01
2.785632403515475586e-01
2.785632403515475586e-01
2.938479174627435797e-01
2.938479174627435797e-01
3.030187237294612035e-01
3.030187237294612035e-01
3.030187237294612035e-01
3.255636224684753666e-01
3.255636224684753666e-01
3.160106992739778464e-01
3.160106992739778464e-01
3.160106992739778464e-01
3.488727550630492669e-01
