3.542223920519679270e-01
3.542223920519679270e-01
3.622468475353458062e-01
3.622468475353458062e-01
3.622468475353458062e-01
3.397019487963316986e-01
3.397019487963316986e-01
3.397019487963316986e-01
3.397019487963316986e-01
3.397019487963316986e-01
3.504012227741689078e-01
3.504012227741689078e-01
3.419946503630110768e-01
3.419946503630110768e-01
3.419946503630110768e-01
3.419946503630110768e-01
3.419946503630110768e-01
3.316774933129537639e-01
3.316774933129537639e-01
3.316774933129537639e-01
3.370271303018723685e-01
3.370271303018723685e-01
3.328238440962934530e-01
3.328238440962934530e-01
3.328238440962934530e-01
3.274742071073748484e-01
3.274742071073748484e-01
3.152464654184180537e-01
3.152464654184180537e-01
3.152464654184180537e-01
3.076041268628200154e-01
3.076041268628200154e-01
3.186855177684371210e-01
3.186855177684371210e-01
3.186855177684371210e-01
3.114252961406190345e-01
3.114252961406190345e-01
3.167749331295376392e-01
3.167749331295376392e-01
3.167749331295376392e-01
3.129537638517386200e-01
3.129537638517386200e-01
2.923194497516239942e-01
2.923194497516239942e-01
2.923194497516239942e-01
3.114252961406190345e-01
3.114252961406190345e-01
2.900267481849446161e-01
2.900267481849446161e-01
2.900267481849446161e-01
2.946121513183034279e-01
2.946121513183034279e-01
2.869698127627053896e-01
2.869698127627053896e-01
2.869698127627053896e-01
2.907909820405044088e-01
2.907909820405044088e-01
2.957585021016431170e-01
2.957585021016431170e-01
2.957585021016431170e-01
2.949942682460833243e-01
2.949942682460833243e-01
2.995796713794421362e-01
2.995796713794421362e-01
2.995796713794421362e-01
2.835307604126862668e-01
2.835307604126862668e-01
2.827665265571264741e-01
2.827665265571264741e-01
2.827665265571264741e-01
2.991975544516621843e-01
2.991975544516621843e-01
2.865876958349254933e-01
2.865876958349254933e-01
2.865876958349254933e-01
2.747420710737485394e-01
2.747420710737485394e-01
2.904088651127245124e-01
2.904088651127245124e-01
2.904088651127245124e-01
2.919373328238440979e-01
2.919373328238440979e-01
2.892625143293847678e-01
2.892625143293847678e-01
2.892625143293847678e-01
2.873519296904852860e-01
2.873519296904852860e-01
2.915552158960642015e-01
2.915552158960642015e-01
2.915552158960642015e-01
2.705387848681696794e-01
2.705387848681696794e-01
2.751241880015284913e-01
2.751241880015284913e-01
2.751241880015284913e-01
2.747420710737485394e-01
2.747420710737485394e-01
2.670997325181505566e-01
2.670997325181505566e-01
2.670997325181505566e-01
2.747420710737485394e-01
2.747420710737485394e-01
2.831486434849063705e-01
2.831486434849063705e-01
2.831486434849063705e-01
2.850592281238059078e-01
2.850592281238059078e-01
2.758884218570882840e-01
2.758884218570882840e-01
2.758884218570882840e-01
2.674818494459304530e-01
2.674818494459304530e-01
2.781811234237676622e-01
2.781811234237676622e-01
2.781811234237676622e-01
2.823844096293465777e-01
2.823844096293465777e-01
2.628964463125716411e-01
2.628964463125716411e-01
2.628964463125716411e-01
2.793274742071073513e-01
2.793274742071073513e-01
2.755063049293083877e-01
2.755063049293083877e-01
2.755063049293083877e-01
2.659533817348108675e-01
2.659533817348108675e-01
2.648070309514711229e-01
2.648070309514711229e-01
2.648070309514711229e-01
2.755063049293083877e-01
2.755063049293083877e-01
2.678639663737103493e-01
2.678639663737103493e-01
2.678639663737103493e-01
2.663354986625907639e-01
2.663354986625907639e-01
2.560183416125334510e-01
2.560183416125334510e-01
2.560183416125334510e-01
2.598395108903324147e-01
2.598395108903324147e-01
2.621322124570118484e-01
2.621322124570118484e-01
2.621322124570118484e-01
2.651891478792510748e-01
2.651891478792510748e-01
2.514329384791746391e-01
2.514329384791746391e-01
2.514329384791746391e-01
2.655712648070309712e-01
2.655712648070309712e-01
2.690103171570500384e-01
2.690103171570500384e-01
2.690103171570500384e-01
2.499044707680550259e-01
2.499044707680550259e-01
2.521971723347344319e-01
2.521971723347344319e-01
2.521971723347344319e-01
2.606037447458922629e-01
2.606037447458922629e-01
2.640427970959113302e-01
2.640427970959113302e-01
2.640427970959113302e-01
2.476117692013756200e-01
2.476117692013756200e-01
2.606037447458922629e-01
2.606037447458922629e-01
2.606037447458922629e-01
2.426442491402369117e-01
2.426442491402369117e-01
2.453190676346962140e-01
2.453190676346962140e-01
2.453190676346962140e-01
2.625143293847917447e-01
2.625143293847917447e-01
2.544898739014138100e-01
2.544898739014138100e-01
2.544898739014138100e-01
2.460833014902560067e-01
2.460833014902560067e-01
2.414978983568972226e-01
2.414978983568972226e-01
2.414978983568972226e-01
2.399694306457776094e-01
2.399694306457776094e-01
2.514329384791746391e-01
2.514329384791746391e-01
2.514329384791746391e-01
2.403515475735575058e-01
2.403515475735575058e-01
2.479938861291555163e-01
2.479938861291555163e-01
2.479938861291555163e-01
2.388230798624378926e-01
2.388230798624378926e-01
2.472296522735957236e-01
2.472296522735957236e-01
2.472296522735957236e-01
2.323270920901795988e-01
2.323270920901795988e-01
2.376767290790982035e-01
2.376767290790982035e-01
2.399694306457776094e-01
2.399694306457776094e-01
2.399694306457776094e-01
2.418800152846771190e-01
2.418800152846771190e-01
2.319449751623997025e-01
2.319449751623997025e-01
2.319449751623997025e-01
2.418800152846771190e-01
2.418800152846771190e-01
2.269774551012609942e-01
2.269774551012609942e-01
2.269774551012609942e-01
2.265953381734810979e-01
2.265953381734810979e-01
2.204814673290026728e-01
2.204814673290026728e-01
2.204814673290026728e-01
2.407336645013374021e-01
2.407336645013374021e-01
2.208635842567825691e-01
2.208635842567825691e-01
2.208635842567825691e-01
2.220099350401222860e-01
2.220099350401222860e-01
2.353840275124187975e-01
2.353840275124187975e-01
2.353840275124187975e-01
2.124570118456247658e-01
2.124570118456247658e-01
2.296522735957202965e-01
2.296522735957202965e-01
2.296522735957202965e-01
2.178066488345433704e-01
2.178066488345433704e-01
2.162781811234237572e-01
2.162781811234237572e-01
2.162781811234237572e-01
2.124570118456247658e-01
2.124570118456247658e-01
2.200993504012227764e-01
2.200993504012227764e-01
2.200993504012227764e-01
2.151318303400840681e-01
2.151318303400840681e-01
2.151318303400840681e-01
2.151318303400840681e-01
2.151318303400840681e-01
2.109285441345051526e-01
2.109285441345051526e-01
2.094000764233855671e-01
2.094000764233855671e-01
2.094000764233855671e-01
2.128391287734046622e-01
2.128391287734046622e-01
2.051967902178066516e-01
2.051967902178066516e-01
2.051967902178066516e-01
2.036683225066870384e-01
2.036683225066870384e-01
2.136033626289644549e-01
2.136033626289644549e-01
2.136033626289644549e-01
2.147497134123041718e-01
2.147497134123041718e-01
1.994650363011081506e-01
1.994650363011081506e-01
1.994650363011081506e-01
2.162781811234237572e-01
2.162781811234237572e-01
2.139854795567443513e-01
2.139854795567443513e-01
2.139854795567443513e-01
2.036683225066870384e-01
2.036683225066870384e-01
2.063431410011463407e-01
2.063431410011463407e-01
2.063431410011463407e-01
1.987008024455483302e-01
1.987008024455483302e-01
1.883836453954910173e-01
1.883836453954910173e-01
1.883836453954910173e-01
2.074894917844860576e-01
2.074894917844860576e-01
2.002292701566679434e-01
2.002292701566679434e-01
2.002292701566679434e-01
2.082537256400458503e-01
2.082537256400458503e-01
2.021398547955674529e-01
2.021398547955674529e-01
2.021398547955674529e-01
2.105464272067252562e-01
2.105464272067252562e-01
1.857088269010317150e-01
1.857088269010317150e-01
1.857088269010317150e-01
1.857088269010317150e-01
1.857088269010317150e-01
1.937332823844096219e-01
1.937332823844096219e-01
1.937332823844096219e-01
1.841803591899121018e-01
1.841803591899121018e-01
1.971723347344287447e-01
1.971723347344287447e-01
1.971723347344287447e-01
1.837982422621322054e-01
1.837982422621322054e-01
1.987008024455483302e-01
1.987008024455483302e-01
1.987008024455483302e-01
1.807413068398930067e-01
1.807413068398930067e-01
1.983186855177684338e-01
1.983186855177684338e-01
1.983186855177684338e-01
1.837982422621322054e-01
1.837982422621322054e-01
1.941153993121895183e-01
1.941153993121895183e-01
1.941153993121895183e-01
1.914405808177302160e-01
1.914405808177302160e-01
1.899121131066106305e-01
1.899121131066106305e-01
1.899121131066106305e-01
1.818876576232326958e-01
1.818876576232326958e-01
1.765380206343140912e-01
1.765380206343140912e-01
1.765380206343140912e-01
1.837982422621322054e-01
1.837982422621322054e-01
1.899121131066106305e-01
1.899121131066106305e-01
1.899121131066106305e-01
1.826518914787925163e-01
1.826518914787925163e-01
1.914405808177302160e-01
1.914405808177302160e-01
1.914405808177302160e-01
1.857088269010317150e-01
1.857088269010317150e-01
1.857088269010317150e-01
1.857088269010317150e-01
1.857088269010317150e-01
1.730989682842949962e-01
1.730989682842949962e-01
1.799770729843332140e-01
1.799770729843332140e-01
1.799770729843332140e-01
1.803591899121131104e-01
1.803591899121131104e-01
1.849445930454719222e-01
1.849445930454719222e-01
1.849445930454719222e-01
1.799770729843332140e-01
1.799770729843332140e-01
1.727168513565150998e-01
1.727168513565150998e-01
1.727168513565150998e-01
1.834161253343523090e-01
1.834161253343523090e-01
1.818876576232326958e-01
1.818876576232326958e-01
1.818876576232326958e-01
1.864730607565915077e-01
1.864730607565915077e-01
1.822697745510126199e-01
1.822697745510126199e-01
1.822697745510126199e-01
1.849445930454719222e-01
1.849445930454719222e-01
1.681314482231562879e-01
1.681314482231562879e-01
1.681314482231562879e-01
1.719526175009552793e-01
1.719526175009552793e-01
1.761559037065341948e-01
1.761559037065341948e-01
1.761559037065341948e-01
1.776843714176538080e-01
1.776843714176538080e-01
1.757737867787542985e-01
1.757737867787542985e-01
1.757737867787542985e-01
1.669850974398165711e-01
1.669850974398165711e-01
1.658387466564768820e-01
1.658387466564768820e-01
1.658387466564768820e-01
1.803591899121131104e-01
1.803591899121131104e-01
1.834161253343523090e-01
1.834161253343523090e-01
1.834161253343523090e-01
1.708062667176155902e-01
1.708062667176155902e-01
1.830340084065724127e-01
1.830340084065724127e-01
1.830340084065724127e-01
1.650745128009170892e-01
1.650745128009170892e-01
1.654566297286969856e-01
1.654566297286969856e-01
1.815055406954527994e-01
1.815055406954527994e-01
1.815055406954527994e-01
1.727168513565150998e-01
1.727168513565150998e-01
1.666029805120366747e-01
1.666029805120366747e-01
1.666029805120366747e-01
1.692777990064959770e-01
1.692777990064959770e-01
1.822697745510126199e-01
1.822697745510126199e-01
1.822697745510126199e-01
1.654566297286969856e-01
1.654566297286969856e-01
1.750095529231945057e-01
1.750095529231945057e-01
1.750095529231945057e-01
1.696599159342759011e-01
1.696599159342759011e-01
1.589606419564386641e-01
1.589606419564386641e-01
1.589606419564386641e-01
1.704241497898356938e-01
1.704241497898356938e-01
1.700420328620557975e-01
1.700420328620557975e-01
1.700420328620557975e-01
1.658387466564768820e-01
1.658387466564768820e-01
1.746274359954146094e-01
1.746274359954146094e-01
1.746274359954146094e-01
1.788307222009934971e-01
1.788307222009934971e-01
1.799770729843332140e-01
1.799770729843332140e-01
1.799770729843332140e-01
1.593427588842185605e-01
1.593427588842185605e-01
1.597248758119984846e-01
1.597248758119984846e-01
1.597248758119984846e-01
1.581964081008788714e-01
1.581964081008788714e-01
1.773022544898739117e-01
1.773022544898739117e-01
1.773022544898739117e-01
1.562858234619793618e-01
1.562858234619793618e-01
1.688956820787160806e-01
1.688956820787160806e-01
1.688956820787160806e-01
1.795949560565533176e-01
1.795949560565533176e-01
1.753916698509744021e-01
1.753916698509744021e-01
1.753916698509744021e-01
1.612533435231180701e-01
1.612533435231180701e-01
1.704241497898356938e-01
1.704241497898356938e-01
1.704241497898356938e-01
1.612533435231180701e-01
1.612533435231180701e-01
1.646923958731371929e-01
1.646923958731371929e-01
1.646923958731371929e-01
1.604891096675582773e-01
1.604891096675582773e-01
1.620175773786778628e-01
1.620175773786778628e-01
1.620175773786778628e-01
1.608712265953381737e-01
1.608712265953381737e-01
1.765380206343140912e-01
1.765380206343140912e-01
1.765380206343140912e-01
1.815055406954527994e-01
1.815055406954527994e-01
1.612533435231180701e-01
1.612533435231180701e-01
1.612533435231180701e-01
1.669850974398165711e-01
1.669850974398165711e-01
1.635460450897974760e-01
1.635460450897974760e-01
1.635460450897974760e-01
1.753916698509744021e-01
1.753916698509744021e-01
1.566679403897592582e-01
1.566679403897592582e-01
1.566679403897592582e-01
1.708062667176155902e-01
1.708062667176155902e-01
1.593427588842185605e-01
1.593427588842185605e-01
1.593427588842185605e-01
1.654566297286969856e-01
1.654566297286969856e-01
1.761559037065341948e-01
1.761559037065341948e-01
1.761559037065341948e-01
1.669850974398165711e-01
1.669850974398165711e-01
1.562858234619793618e-01
1.562858234619793618e-01
1.562858234619793618e-01
1.734810852120748925e-01
1.734810852120748925e-01
1.704241497898356938e-01
1.704241497898356938e-01
1.704241497898356938e-01
1.669850974398165711e-01
1.669850974398165711e-01
1.608712265953381737e-01
1.608712265953381737e-01
1.608712265953381737e-01
1.677493312953763915e-01
1.677493312953763915e-01
1.635460450897974760e-01
1.635460450897974760e-01
1.635460450897974760e-01
1.681314482231562879e-01
1.681314482231562879e-01
1.494077187619411440e-01
1.494077187619411440e-01
1.494077187619411440e-01
1.612533435231180701e-01
1.612533435231180701e-01
1.681314482231562879e-01
1.681314482231562879e-01
1.681314482231562879e-01
1.566679403897592582e-01
1.566679403897592582e-01
1.551394726786396727e-01
1.551394726786396727e-01
1.551394726786396727e-01
1.539931218952999559e-01
1.539931218952999559e-01
1.494077187619411440e-01
1.494077187619411440e-01
1.494077187619411440e-01
1.536110049675200595e-01
1.536110049675200595e-01
1.593427588842185605e-01
1.593427588842185605e-01
1.593427588842185605e-01
1.761559037065341948e-01
1.761559037065341948e-01
1.581964081008788714e-01
1.581964081008788714e-01
1.581964081008788714e-01
1.604891096675582773e-01
1.604891096675582773e-01
1.570500573175391545e-01
1.570500573175391545e-01
1.570500573175391545e-01
1.524646541841803704e-01
1.524646541841803704e-01
1.677493312953763915e-01
1.677493312953763915e-01
1.677493312953763915e-01
1.547573557508597764e-01
1.547573557508597764e-01
1.494077187619411440e-01
1.494077187619411440e-01
1.494077187619411440e-01
1.658387466564768820e-01
1.658387466564768820e-01
1.562858234619793618e-01
1.562858234619793618e-01
1.562858234619793618e-01
1.482613679786014549e-01
1.482613679786014549e-01
1.490256018341612476e-01
1.490256018341612476e-01
1.490256018341612476e-01
1.501719526175009645e-01
1.501719526175009645e-01
1.581964081008788714e-01
1.581964081008788714e-01
1.581964081008788714e-01
1.520825372564004463e-01
1.520825372564004463e-01
1.494077187619411440e-01
1.494077187619411440e-01
1.494077187619411440e-01
1.429117309896828503e-01
1.429117309896828503e-01
1.589606419564386641e-01
1.589606419564386641e-01
1.589606419564386641e-01
1.627818112342376833e-01
1.627818112342376833e-01
1.387084447841039347e-01
1.387084447841039347e-01
1.387084447841039347e-01
1.497898356897210681e-01
1.497898356897210681e-01
1.455865494841421526e-01
1.455865494841421526e-01
1.517004203286205499e-01
1.517004203286205499e-01
1.517004203286205499e-01
1.612533435231180701e-01
1.612533435231180701e-01
1.402369124952235480e-01
1.402369124952235480e-01
1.402369124952235480e-01
1.413832632785632371e-01
1.413832632785632371e-01
1.375620940007642456e-01
1.375620940007642456e-01
1.375620940007642456e-01
1.539931218952999559e-01
1.539931218952999559e-01
1.639281620175773724e-01
1.639281620175773724e-01
1.639281620175773724e-01
1.432938479174627466e-01
1.432938479174627466e-01
1.448223156285823598e-01
1.448223156285823598e-01
1.448223156285823598e-01
1.517004203286205499e-01
1.517004203286205499e-01
1.620175773786778628e-01
1.620175773786778628e-01
1.620175773786778628e-01
1.620175773786778628e-01
1.620175773786778628e-01
1.597248758119984846e-01
1.597248758119984846e-01
1.597248758119984846e-01
1.467329002674818417e-01
1.467329002674818417e-01
1.639281620175773724e-01
1.639281620175773724e-01
1.639281620175773724e-01
1.715705005731753829e-01
1.715705005731753829e-01
1.467329002674818417e-01
1.467329002674818417e-01
1.467329002674818417e-01
1.539931218952999559e-01
1.539931218952999559e-01
1.608712265953381737e-01
1.608712265953381737e-01
1.608712265953381737e-01
1.669850974398165711e-01
1.669850974398165711e-01
1.612533435231180701e-01
1.612533435231180701e-01
1.612533435231180701e-01
1.765380206343140912e-01
1.765380206343140912e-01
1.841803591899121018e-01
1.841803591899121018e-01
1.841803591899121018e-01
1.704241497898356938e-01
1.704241497898356938e-01
1.723347344287352034e-01
1.723347344287352034e-01
1.723347344287352034e-01
1.872372946121513282e-01
1.872372946121513282e-01
1.902942300343905269e-01
1.902942300343905269e-01
1.902942300343905269e-01
1.891478792510508100e-01
1.891478792510508100e-01
1.952617500955292351e-01
1.952617500955292351e-01
1.952617500955292351e-01
2.036683225066870384e-01
2.036683225066870384e-01
2.051967902178066516e-01
2.051967902178066516e-01
2.051967902178066516e-01
2.208635842567825691e-01
2.208635842567825691e-01
2.208635842567825691e-01
2.208635842567825691e-01
2.208635842567825691e-01
2.220099350401222860e-01
2.220099350401222860e-01
2.315628582346198061e-01
2.315628582346198061e-01
2.315628582346198061e-01
2.338555598012991843e-01
2.338555598012991843e-01
2.414978983568972226e-01
2.414978983568972226e-01
2.414978983568972226e-01
2.525792892625143282e-01
2.525792892625143282e-01
2.457011845624761104e-01
2.457011845624761104e-01
2.457011845624761104e-01
2.514329384791746391e-01
2.514329384791746391e-01
2.739778372181887467e-01
2.739778372181887467e-01
2.739778372181887467e-01
2.747420710737485394e-01
2.747420710737485394e-01
2.865876958349254933e-01
2.865876958349254933e-01
2.865876958349254933e-01
2.850592281238059078e-01
2.850592281238059078e-01
2.938479174627435797e-01
2.938479174627435797e-01
2.938479174627435797e-01
3.014902560183416180e-01
3.014902560183416180e-01
3.087504776461597045e-01
3.087504776461597045e-01
3.087504776461597045e-01
3.198318685517768656e-01
3.198318685517768656e-01
3.068398930072602226e-01
3.068398930072602226e-01
3.068398930072602226e-01
3.163928162017577428e-01
3.163928162017577428e-01
3.251815055406954702e-01
3.251815055406954702e-01
3.251815055406954702e-01
3.465800534963698887e-01
3.465800534963698887e-01
3.500191058463890115e-01
3.500191058463890115e-01
3.500191058463890115e-01
3.511654566297287006e-01
3.511654566297287006e-01
3.538402751241879751e-01
3.538402751241879751e-01
3.538402751241879751e-01
3.530760412686281824e-01
3.530760412686281824e-01
3.588077951853266834e-01
3.588077951853266834e-01
3.588077951853266834e-01
3.637753152464653916e-01
3.637753152464653916e-01
3.672143675964845144e-01
3.672143675964845144e-01
3.672143675964845144e-01
3.752388230798624491e-01
3.752388230798624491e-01
3.756209400076423455e-01
3.756209400076423455e-01
3.756209400076423455e-01
3.844096293465800729e-01
3.844096293465800729e-01
3.813526939243408465e-01
3.813526939243408465e-01
3.813526939243408465e-01
3.924340848299579521e-01
3.924340848299579521e-01
3.951089033244172821e-01
3.951089033244172821e-01
3.951089033244172821e-01
3.977837218188765567e-01
3.977837218188765567e-01
4.038975926633550095e-01
4.038975926633550095e-01
4.038975926633550095e-01
3.981658387466564530e-01
3.981658387466564530e-01
4.073366450133740768e-01
4.073366450133740768e-01
4.073366450133740768e-01
4.207107374856706161e-01
4.207107374856706161e-01
4.100114635078334069e-01
4.100114635078334069e-01
4.100114635078334069e-01
4.096293465800535105e-01
4.096293465800535105e-01
4.195643867023309270e-01
4.195643867023309270e-01
4.195643867023309270e-01
4.283530760412686544e-01
4.283530760412686544e-01
4.165074512800917006e-01
4.165074512800917006e-01
4.165074512800917006e-01
4.207107374856706161e-01
4.207107374856706161e-01
4.210928544134505125e-01
4.210928544134505125e-01
4.210928544134505125e-01
4.241497898356897389e-01
4.241497898356897389e-01
4.386702330913259673e-01
4.386702330913259673e-01
4.386702330913259673e-01
4.356132976690867409e-01
4.356132976690867409e-01
4.421092854413450346e-01
4.421092854413450346e-01
4.421092854413450346e-01
4.252961406190294280e-01
4.252961406190294280e-01
4.279709591134887026e-01
4.279709591134887026e-01
4.340848299579671554e-01
4.340848299579671554e-01
4.340848299579671554e-01
4.409629346580053455e-01
4.409629346580053455e-01
4.329384791746274108e-01
4.329384791746274108e-01
4.329384791746274108e-01
4.363775315246465336e-01
4.363775315246465336e-01
4.310278945357279290e-01
4.310278945357279290e-01
4.310278945357279290e-01
4.398165838746656564e-01
4.398165838746656564e-01
4.291173098968284472e-01
4.291173098968284472e-01
4.291173098968284472e-01
4.352311807413068445e-01
4.352311807413068445e-01
4.413450515857852419e-01
4.413450515857852419e-01
4.413450515857852419e-01
4.482231562858234875e-01
4.482231562858234875e-01
4.279709591134887026e-01
4.279709591134887026e-01
4.279709591134887026e-01
4.348490638135269482e-01
4.348490638135269482e-01
4.268246083301490135e-01
4.268246083301490135e-01
4.268246083301490135e-01
4.230034390523499943e-01
4.230034390523499943e-01
4.302636606801681363e-01
4.302636606801681363e-01
4.302636606801681363e-01
4.413450515857852419e-01
4.413450515857852419e-01
4.268246083301490135e-01
4.268246083301490135e-01
4.268246083301490135e-01
4.379059992357661191e-01
4.379059992357661191e-01
4.291173098968284472e-01
4.291173098968284472e-01
4.291173098968284472e-01
4.317921283912877217e-01
4.317921283912877217e-01
4.325563622468475145e-01
4.325563622468475145e-01
4.325563622468475145e-01
4.241497898356897389e-01
4.241497898356897389e-01
4.230034390523499943e-01
4.230034390523499943e-01
4.230034390523499943e-01
4.333205961024073627e-01
4.333205961024073627e-01
4.310278945357279290e-01
4.310278945357279290e-01
4.310278945357279290e-01
4.283530760412686544e-01
4.283530760412686544e-01
4.218570882690103052e-01
4.218570882690103052e-01
4.218570882690103052e-01
4.256782575468093244e-01
4.256782575468093244e-01
4.100114635078334069e-01
4.100114635078334069e-01
4.100114635078334069e-01
4.245319067634696353e-01
4.245319067634696353e-01
4.111578142911730960e-01
4.111578142911730960e-01
4.111578142911730960e-01
4.184180359189912379e-01
4.184180359189912379e-01
4.149789835689721151e-01
4.149789835689721151e-01
4.149789835689721151e-01
4.130683989300725778e-01
4.130683989300725778e-01
4.084829957967138214e-01
4.084829957967138214e-01
4.084829957967138214e-01
4.145968666411922188e-01
4.145968666411922188e-01
4.103935804356133032e-01
4.103935804356133032e-01
4.103935804356133032e-01
3.912877340466182630e-01
3.912877340466182630e-01
3.905235001910584702e-01
3.905235001910584702e-01
3.905235001910584702e-01
3.870844478410393474e-01
3.870844478410393474e-01
3.901413832632785739e-01
3.901413832632785739e-01
3.901413832632785739e-01
3.977837218188765567e-01
3.977837218188765567e-01
3.901413832632785739e-01
3.901413832632785739e-01
3.901413832632785739e-01
3.717997707298433263e-01
3.717997707298433263e-01
3.721818876576232227e-01
3.721818876576232227e-01
3.721818876576232227e-01
3.660680168131448253e-01
3.660680168131448253e-01
3.760030569354222418e-01
3.760030569354222418e-01
3.760030569354222418e-01
3.641574321742453435e-01
3.641574321742453435e-01
3.611004967520061171e-01
3.611004967520061171e-01
3.611004967520061171e-01
3.641574321742453435e-01
3.641574321742453435e-01
3.496369889186091151e-01
3.496369889186091151e-01
3.496369889186091151e-01
3.492548719908292187e-01
3.492548719908292187e-01
3.377913641574321613e-01
3.377913641574321613e-01
3.377913641574321613e-01
3.397019487963316986e-01
3.397019487963316986e-01
3.309132594573939712e-01
3.309132594573939712e-01
3.309132594573939712e-01
3.473442873519296814e-01
3.473442873519296814e-01
3.446694688574704069e-01
3.446694688574704069e-01
3.446694688574704069e-01
3.404661826518914913e-01
3.404661826518914913e-01
3.374092472296522649e-01
3.374092472296522649e-01
3.374092472296522649e-01
3.198318685517768656e-01
3.198318685517768656e-01
3.095147115017195527e-01
3.095147115017195527e-01
3.095147115017195527e-01
3.114252961406190345e-01
3.114252961406190345e-01
3.183034008406572246e-01
3.183034008406572246e-01
3.183034008406572246e-01
3.190676346962170173e-01
3.190676346962170173e-01
3.228888039740160365e-01
3.228888039740160365e-01
3.228888039740160365e-01
3.072220099350401190e-01
3.072220099350401190e-01
3.160106992739778464e-01
3.160106992739778464e-01
3.160106992739778464e-01
3.022544898739014108e-01
3.022544898739014108e-01
2.976690867405425989e-01
2.976690867405425989e-01
2.976690867405425989e-01
2.946121513183034279e-01
2.946121513183034279e-01
2.995796713794421362e-01
2.995796713794421362e-01
2.995796713794421362e-01
2.969048528849828061e-01
2.969048528849828061e-01
3.026366068016813071e-01
3.026366068016813071e-01
3.026366068016813071e-01
2.869698127627053896e-01
2.869698127627053896e-01
2.854413450515858042e-01
2.854413450515858042e-01
2.854413450515858042e-01
3.011081390905617217e-01
3.011081390905617217e-01
2.854413450515858042e-01
2.854413450515858042e-01
2.854413450515858042e-01
2.957585021016431170e-01
2.957585021016431170e-01
2.923194497516239942e-01
2.923194497516239942e-01
2.923194497516239942e-01
2.739778372181887467e-01
2.739778372181887467e-01
2.858234619793657005e-01
2.858234619793657005e-01
2.823844096293465777e-01
2.823844096293465777e-01
2.823844096293465777e-01
2.820022927015666814e-01
2.820022927015666814e-01
2.774168895682078695e-01
2.774168895682078695e-01
2.774168895682078695e-01
2.755063049293083877e-01
2.755063049293083877e-01
2.781811234237676622e-01
2.781811234237676622e-01
2.781811234237676622e-01
2.751241880015284913e-01
2.751241880015284913e-01
2.827665265571264741e-01
2.827665265571264741e-01
2.827665265571264741e-01
2.713030187237294721e-01
2.713030187237294721e-01
2.755063049293083877e-01
2.755063049293083877e-01
2.755063049293083877e-01
2.812380588460068886e-01
2.812380588460068886e-01
2.797095911348873032e-01
2.797095911348873032e-01
2.797095911348873032e-01
2.686282002292701421e-01
2.686282002292701421e-01
2.793274742071073513e-01
2.793274742071073513e-01
2.793274742071073513e-01
2.609858616736721593e-01
2.609858616736721593e-01
2.693924340848299348e-01
2.693924340848299348e-01
2.693924340848299348e-01
2.720672525792892649e-01
2.720672525792892649e-01
2.766526557126480768e-01
2.766526557126480768e-01
2.766526557126480768e-01
2.686282002292701421e-01
2.686282002292701421e-01
2.693924340848299348e-01
2.693924340848299348e-01
2.693924340848299348e-01
2.625143293847917447e-01
2.625143293847917447e-01
2.651891478792510748e-01
2.651891478792510748e-01
2.651891478792510748e-01
2.590752770347726219e-01
2.590752770347726219e-01
2.590752770347726219e-01
2.590752770347726219e-01
2.590752770347726219e-01
2.716851356515093685e-01
2.716851356515093685e-01
2.583110431792128292e-01
2.583110431792128292e-01
2.583110431792128292e-01
2.518150554069545355e-01
2.518150554069545355e-01
2.724493695070691612e-01
2.724493695070691612e-01
2.724493695070691612e-01
2.579289262514329328e-01
2.579289262514329328e-01
2.502865876958349500e-01
2.502865876958349500e-01
2.502865876958349500e-01
2.579289262514329328e-01
2.579289262514329328e-01
2.586931601069927256e-01
2.586931601069927256e-01
2.586931601069927256e-01
2.575468093236530365e-01
2.575468093236530365e-01
2.506687046236148464e-01
2.506687046236148464e-01
2.506687046236148464e-01
2.491402369124952332e-01
2.491402369124952332e-01
2.479938861291555163e-01
2.479938861291555163e-01
2.479938861291555163e-01
2.602216278181123665e-01
2.602216278181123665e-01
2.495223538402751295e-01
2.495223538402751295e-01
2.495223538402751295e-01
2.491402369124952332e-01
2.491402369124952332e-01
2.506687046236148464e-01
2.506687046236148464e-01
2.506687046236148464e-01
2.537256400458540173e-01
2.537256400458540173e-01
2.590752770347726219e-01
2.590752770347726219e-01
2.590752770347726219e-01
2.521971723347344319e-01
2.521971723347344319e-01
2.357661444401986939e-01
2.357661444401986939e-01
2.357661444401986939e-01
2.491402369124952332e-01
2.491402369124952332e-01
2.426442491402369117e-01
2.426442491402369117e-01
2.426442491402369117e-01
2.521971723347344319e-01
2.521971723347344319e-01
2.414978983568972226e-01
2.414978983568972226e-01
2.414978983568972226e-01
2.418800152846771190e-01
2.418800152846771190e-01
2.388230798624378926e-01
2.388230798624378926e-01
2.388230798624378926e-01
2.472296522735957236e-01
2.472296522735957236e-01
2.487581199847153091e-01
2.487581199847153091e-01
2.487581199847153091e-01
2.460833014902560067e-01
2.460833014902560067e-01
2.437905999235766008e-01
2.437905999235766008e-01
2.437905999235766008e-01
2.246847535345815883e-01
2.246847535345815883e-01
2.296522735957202965e-01
2.296522735957202965e-01
2.296522735957202965e-01
2.212457011845624655e-01
2.212457011845624655e-01
2.357661444401986939e-01
2.357661444401986939e-01
2.357661444401986939e-01
2.369124952235384107e-01
2.369124952235384107e-01
2.181887657623232668e-01
2.181887657623232668e-01
2.181887657623232668e-01
2.193351165456629837e-01
2.193351165456629837e-01
2.307986243790599856e-01
2.307986243790599856e-01
2.307986243790599856e-01
2.350019105846389011e-01
2.350019105846389011e-01
2.208635842567825691e-01
2.208635842567825691e-01
2.208635842567825691e-01
2.174245319067634741e-01
2.174245319067634741e-01
2.116927779900649731e-01
2.116927779900649731e-01
2.116927779900649731e-01
2.105464272067252562e-01
2.105464272067252562e-01
2.281238058846006833e-01
2.281238058846006833e-01
2.281238058846006833e-01
2.101643102789453599e-01
2.101643102789453599e-01
2.200993504012227764e-01
2.200993504012227764e-01
2.200993504012227764e-01
2.185708826901031632e-01
2.185708826901031632e-01
2.216278181123423896e-01
2.216278181123423896e-01
2.216278181123423896e-01
2.086358425678257467e-01
2.086358425678257467e-01
2.189529996178830595e-01
2.189529996178830595e-01
2.189529996178830595e-01
2.025219717233473493e-01
2.025219717233473493e-01
2.109285441345051526e-01
2.109285441345051526e-01
2.109285441345051526e-01
2.204814673290026728e-01
2.204814673290026728e-01
2.151318303400840681e-01
2.151318303400840681e-01
2.151318303400840681e-01
2.021398547955674529e-01
2.021398547955674529e-01
1.952617500955292351e-01
1.952617500955292351e-01
1.952617500955292351e-01
1.948796331677493388e-01
1.948796331677493388e-01
2.002292701566679434e-01
2.002292701566679434e-01
2.113106610622850490e-01
2.113106610622850490e-01
2.113106610622850490e-01
2.048146732900267553e-01
2.048146732900267553e-01
2.006113870844478397e-01
2.006113870844478397e-01
2.006113870844478397e-01
2.074894917844860576e-01
2.074894917844860576e-01
1.910584638899503196e-01
1.910584638899503196e-01
1.910584638899503196e-01
2.051967902178066516e-01
2.051967902178066516e-01
2.032862055789071420e-01
2.032862055789071420e-01
2.032862055789071420e-01
1.895299961788307341e-01
1.895299961788307341e-01
1.933511654566297255e-01
1.933511654566297255e-01
1.933511654566297255e-01
1.860909438288116113e-01
1.860909438288116113e-01
2.059610240733664444e-01
2.059610240733664444e-01
2.059610240733664444e-01
1.857088269010317150e-01
1.857088269010317150e-01
2.009935040122277361e-01
2.009935040122277361e-01
2.009935040122277361e-01
2.013756209400076325e-01
2.013756209400076325e-01
1.887657623232709136e-01
1.887657623232709136e-01
1.887657623232709136e-01
1.979365685899885374e-01
1.979365685899885374e-01
1.944975162399694424e-01
1.944975162399694424e-01
1.944975162399694424e-01
1.906763469621704232e-01
1.906763469621704232e-01
1.906763469621704232e-01
1.906763469621704232e-01
1.906763469621704232e-01
1.944975162399694424e-01
1.944975162399694424e-01
1.753916698509744021e-01
1.753916698509744021e-01
1.753916698509744021e-01
1.868551776843714041e-01
1.868551776843714041e-01
1.933511654566297255e-01
1.933511654566297255e-01
1.933511654566297255e-01
1.872372946121513282e-01
1.872372946121513282e-01
1.746274359954146094e-01
1.746274359954146094e-01
1.746274359954146094e-01
1.734810852120748925e-01
1.734810852120748925e-01
1.788307222009934971e-01
1.788307222009934971e-01
1.788307222009934971e-01
1.880015284677111209e-01
1.880015284677111209e-01
1.769201375620939876e-01
1.769201375620939876e-01
1.769201375620939876e-01
1.910584638899503196e-01
1.910584638899503196e-01
1.742453190676346853e-01
1.742453190676346853e-01
1.742453190676346853e-01
1.753916698509744021e-01
1.753916698509744021e-01
1.677493312953763915e-01
1.677493312953763915e-01
1.677493312953763915e-01
1.757737867787542985e-01
1.757737867787542985e-01
1.627818112342376833e-01
1.627818112342376833e-01
1.627818112342376833e-01
1.841803591899121018e-01
1.841803591899121018e-01
1.711883836453954866e-01
1.711883836453954866e-01
1.711883836453954866e-01
1.669850974398165711e-01
1.669850974398165711e-01
1.681314482231562879e-01
1.681314482231562879e-01
1.681314482231562879e-01
1.811234237676729031e-01
1.811234237676729031e-01
1.708062667176155902e-01
1.708062667176155902e-01
1.708062667176155902e-01
1.811234237676729031e-01
1.811234237676729031e-01
1.662208635842567783e-01
1.662208635842567783e-01
1.662208635842567783e-01
1.799770729843332140e-01
1.799770729843332140e-01
1.700420328620557975e-01
1.700420328620557975e-01
1.700420328620557975e-01
1.708062667176155902e-01
1.708062667176155902e-01
1.585785250286587678e-01
1.585785250286587678e-01
1.585785250286587678e-01
1.612533435231180701e-01
1.612533435231180701e-01
1.704241497898356938e-01
1.704241497898356938e-01
1.704241497898356938e-01
1.753916698509744021e-01
1.753916698509744021e-01
1.708062667176155902e-01
1.708062667176155902e-01
1.708062667176155902e-01
1.788307222009934971e-01
1.788307222009934971e-01
1.654566297286969856e-01
1.654566297286969856e-01
1.654566297286969856e-01
1.685135651509361843e-01
1.685135651509361843e-01
1.620175773786778628e-01
1.620175773786778628e-01
1.620175773786778628e-01
1.738632021398547889e-01
1.738632021398547889e-01
1.654566297286969856e-01
1.654566297286969856e-01
1.654566297286969856e-01
1.795949560565533176e-01
1.795949560565533176e-01
1.719526175009552793e-01
1.719526175009552793e-01
1.719526175009552793e-01
1.581964081008788714e-01
1.581964081008788714e-01
1.711883836453954866e-01
1.711883836453954866e-01
1.711883836453954866e-01
1.780664883454337044e-01
1.780664883454337044e-01
1.761559037065341948e-01
1.761559037065341948e-01
1.761559037065341948e-01
1.708062667176155902e-01
1.708062667176155902e-01
1.681314482231562879e-01
1.681314482231562879e-01
1.681314482231562879e-01
1.696599159342759011e-01
1.696599159342759011e-01
1.562858234619793618e-01
1.562858234619793618e-01
1.562858234619793618e-01
1.750095529231945057e-01
1.750095529231945057e-01
1.585785250286587678e-01
1.585785250286587678e-01
1.585785250286587678e-01
1.696599159342759011e-01
1.696599159342759011e-01
1.753916698509744021e-01
1.753916698509744021e-01
1.753916698509744021e-01
1.692777990064959770e-01
1.692777990064959770e-01
1.700420328620557975e-01
1.700420328620557975e-01
1.700420328620557975e-01
1.555215896064195691e-01
1.555215896064195691e-01
1.673672143675964952e-01
1.673672143675964952e-01
1.673672143675964952e-01
1.719526175009552793e-01
1.719526175009552793e-01
1.578142911730989750e-01
1.578142911730989750e-01
1.578142911730989750e-01
1.566679403897592582e-01
1.566679403897592582e-01
1.627818112342376833e-01
1.627818112342376833e-01
1.627818112342376833e-01
1.597248758119984846e-01
1.597248758119984846e-01
1.681314482231562879e-01
1.681314482231562879e-01
1.681314482231562879e-01
1.562858234619793618e-01
1.562858234619793618e-01
1.578142911730989750e-01
1.578142911730989750e-01
1.677493312953763915e-01
1.677493312953763915e-01
1.677493312953763915e-01
1.696599159342759011e-01
1.696599159342759011e-01
1.597248758119984846e-01
1.597248758119984846e-01
1.597248758119984846e-01
1.623996943064577869e-01
1.623996943064577869e-01
1.639281620175773724e-01
1.639281620175773724e-01
1.639281620175773724e-01
1.734810852120748925e-01
1.734810852120748925e-01
1.719526175009552793e-01
1.719526175009552793e-01
1.719526175009552793e-01
1.612533435231180701e-01
1.612533435231180701e-01
1.719526175009552793e-01
1.719526175009552793e-01
1.719526175009552793e-01
1.604891096675582773e-01
1.604891096675582773e-01
1.669850974398165711e-01
1.669850974398165711e-01
1.669850974398165711e-01
1.593427588842185605e-01
1.593427588842185605e-01
1.719526175009552793e-01
1.719526175009552793e-01
1.719526175009552793e-01
1.578142911730989750e-01
1.578142911730989750e-01
1.559037065341994654e-01
1.559037065341994654e-01
1.559037065341994654e-01
1.581964081008788714e-01
1.581964081008788714e-01
1.734810852120748925e-01
1.734810852120748925e-01
1.734810852120748925e-01
1.639281620175773724e-01
1.639281620175773724e-01
1.589606419564386641e-01
1.589606419564386641e-01
1.589606419564386641e-01
1.551394726786396727e-01
1.551394726786396727e-01
1.627818112342376833e-01
1.627818112342376833e-01
1.627818112342376833e-01
1.555215896064195691e-01
1.555215896064195691e-01
1.750095529231945057e-01
1.750095529231945057e-01
1.750095529231945057e-01
1.677493312953763915e-01
1.677493312953763915e-01
1.658387466564768820e-01
1.658387466564768820e-01
1.658387466564768820e-01
1.589606419564386641e-01
1.589606419564386641e-01
1.486434849063813513e-01
1.486434849063813513e-01
1.486434849063813513e-01
1.539931218952999559e-01
1.539931218952999559e-01
1.597248758119984846e-01
1.597248758119984846e-01
1.597248758119984846e-01
1.562858234619793618e-01
1.562858234619793618e-01
1.524646541841803704e-01
1.524646541841803704e-01
1.524646541841803704e-01
1.723347344287352034e-01
1.723347344287352034e-01
1.627818112342376833e-01
1.627818112342376833e-01
1.627818112342376833e-01
1.517004203286205499e-01
1.517004203286205499e-01
1.692777990064959770e-01
1.692777990064959770e-01
1.692777990064959770e-01
1.662208635842567783e-01
1.662208635842567783e-01
1.593427588842185605e-01
1.593427588842185605e-01
1.593427588842185605e-01
1.474971341230416622e-01
1.474971341230416622e-01
1.666029805120366747e-01
1.666029805120366747e-01
1.666029805120366747e-01
1.581964081008788714e-01
1.581964081008788714e-01
1.547573557508597764e-01
1.547573557508597764e-01
1.547573557508597764e-01
1.673672143675964952e-01
1.673672143675964952e-01
1.494077187619411440e-01
1.494077187619411440e-01
1.494077187619411440e-01
1.444401987008024357e-01
1.444401987008024357e-01
1.543752388230798522e-01
1.543752388230798522e-01
1.543752388230798522e-01
1.589606419564386641e-01
1.589606419564386641e-01
1.490256018341612476e-01
1.490256018341612476e-01
1.490256018341612476e-01
1.604891096675582773e-01
1.604891096675582773e-01
1.478792510508215585e-01
1.478792510508215585e-01
1.478792510508215585e-01
1.402369124952235480e-01
1.402369124952235480e-01
1.643102789453572687e-01
1.643102789453572687e-01
1.643102789453572687e-01
1.685135651509361843e-01
1.685135651509361843e-01
1.643102789453572687e-01
1.643102789453572687e-01
1.643102789453572687e-01
1.425296140619029539e-01
1.425296140619029539e-01
1.551394726786396727e-01
1.551394726786396727e-01
1.551394726786396727e-01
1.562858234619793618e-01
1.562858234619793618e-01
1.639281620175773724e-01
1.639281620175773724e-01
1.639281620175773724e-01
1.597248758119984846e-01
1.597248758119984846e-01
1.494077187619411440e-01
1.494077187619411440e-01
1.494077187619411440e-01
1.543752388230798522e-01
1.543752388230798522e-01
1.547573557508597764e-01
1.547573557508597764e-01
1.547573557508597764e-01
1.593427588842185605e-01
1.593427588842185605e-01
1.543752388230798522e-01
1.543752388230798522e-01
1.543752388230798522e-01
1.390905617118838311e-01
1.390905617118838311e-01
1.574321742453190787e-01
1.574321742453190787e-01
1.574321742453190787e-01
1.425296140619029539e-01
1.425296140619029539e-01
1.448223156285823598e-01
1.448223156285823598e-01
1.448223156285823598e-01
1.398547955674436516e-01
1.398547955674436516e-01
1.486434849063813513e-01
1.486434849063813513e-01
1.486434849063813513e-01
1.455865494841421526e-01
1.455865494841421526e-01
1.497898356897210681e-01
1.497898356897210681e-01
1.497898356897210681e-01
1.509361864730607572e-01
1.509361864730607572e-01
1.570500573175391545e-01
1.570500573175391545e-01
1.570500573175391545e-01
1.646923958731371929e-01
1.646923958731371929e-01
1.494077187619411440e-01
1.494077187619411440e-01
1.494077187619411440e-01
1.597248758119984846e-01
1.597248758119984846e-01
1.520825372564004463e-01
1.520825372564004463e-01
1.520825372564004463e-01
1.532288880397401631e-01
1.532288880397401631e-01
1.784486052732136008e-01
1.784486052732136008e-01
1.784486052732136008e-01
1.704241497898356938e-01
1.704241497898356938e-01
1.757737867787542985e-01
1.757737867787542985e-01
1.868551776843714041e-01
1.868551776843714041e-01
1.868551776843714041e-01
1.925869316010699328e-01
1.925869316010699328e-01
1.925869316010699328e-01
1.925869316010699328e-01
1.925869316010699328e-01
2.009935040122277361e-01
2.009935040122277361e-01
1.994650363011081506e-01
1.994650363011081506e-01
1.994650363011081506e-01
1.956438670233091315e-01
1.956438670233091315e-01
2.048146732900267553e-01
2.048146732900267553e-01
2.048146732900267553e-01
2.063431410011463407e-01
2.063431410011463407e-01
2.269774551012609942e-01
2.269774551012609942e-01
2.269774551012609942e-01
2.265953381734810979e-01
2.265953381734810979e-01
2.384409629346579962e-01
2.384409629346579962e-01
2.384409629346579962e-01
2.422621322124570153e-01
2.422621322124570153e-01
2.560183416125334510e-01
2.560183416125334510e-01
2.560183416125334510e-01
2.651891478792510748e-01
2.651891478792510748e-01
2.678639663737103493e-01
2.678639663737103493e-01
2.678639663737103493e-01
2.640427970959113302e-01
2.640427970959113302e-01
2.800917080626671996e-01
2.800917080626671996e-01
2.800917080626671996e-01
2.862055789071455969e-01
2.862055789071455969e-01
2.804738249904470959e-01
2.804738249904470959e-01
2.804738249904470959e-01
2.961406190294230134e-01
2.961406190294230134e-01
3.022544898739014108e-01
3.022544898739014108e-01
3.022544898739014108e-01
3.102789453572793454e-01
3.102789453572793454e-01
3.049293083683607408e-01
3.049293083683607408e-01
3.049293083683607408e-01
3.290026748184944339e-01
3.290026748184944339e-01
3.171570500573175355e-01
3.171570500573175355e-01
3.171570500573175355e-01
3.332059610240733494e-01
3.332059610240733494e-01
3.492548719908292187e-01
3.492548719908292187e-01
3.492548719908292187e-01
3.400840657241115950e-01
3.400840657241115950e-01
3.427588842185708695e-01
3.427588842185708695e-01
3.427588842185708695e-01
3.614826136797860134e-01
3.614826136797860134e-01
3.656858998853649290e-01
3.656858998853649290e-01
3.656858998853649290e-01
3.584256782575467870e-01
3.584256782575467870e-01
3.618647306075659098e-01
3.618647306075659098e-01
3.618647306075659098e-01
3.637753152464653916e-01
3.637753152464653916e-01
3.698891860909438445e-01
3.698891860909438445e-01
3.698891860909438445e-01
3.886129155521589329e-01
3.886129155521589329e-01
3.897592663354986775e-01
3.897592663354986775e-01
3.897592663354986775e-01
3.905235001910584702e-01
3.905235001910584702e-01
3.874665647688192438e-01
3.874665647688192438e-01
3.874665647688192438e-01
4.084829957967138214e-01
4.084829957967138214e-01
4.088651127244937178e-01
4.088651127244937178e-01
4.088651127244937178e-01
3.985479556744364049e-01
3.985479556744364049e-01
4.054260603744745950e-01
4.054260603744745950e-01
4.054260603744745950e-01
4.165074512800917006e-01
4.165074512800917006e-01
4.126862820022926814e-01
4.126862820022926814e-01
4.126862820022926814e-01
4.184180359189912379e-01
4.184180359189912379e-01
4.088651127244937178e-01
4.088651127244937178e-01
4.088651127244937178e-01
4.237676729079098426e-01
4.237676729079098426e-01
4.333205961024073627e-01
4.333205961024073627e-01
4.333205961024073627e-01
4.237676729079098426e-01
4.237676729079098426e-01
4.130683989300725778e-01
4.130683989300725778e-01
4.130683989300725778e-01
4.188001528467711343e-01
4.188001528467711343e-01
4.321742453190676181e-01
4.321742453190676181e-01
4.321742453190676181e-01
4.417271685135651382e-01
4.417271685135651382e-01
4.218570882690103052e-01
4.218570882690103052e-01
4.218570882690103052e-01
4.241497898356897389e-01
4.241497898356897389e-01
4.363775315246465336e-01
4.363775315246465336e-01
4.363775315246465336e-01
4.287351929690485508e-01
4.287351929690485508e-01
4.329384791746274108e-01
4.329384791746274108e-01
4.329384791746274108e-01
4.317921283912877217e-01
4.317921283912877217e-01
4.367596484524264300e-01
4.367596484524264300e-01
4.367596484524264300e-01
4.432556362246847792e-01
4.432556362246847792e-01
4.352311807413068445e-01
4.352311807413068445e-01
4.352311807413068445e-01
4.268246083301490135e-01
4.268246083301490135e-01
4.375238823079862227e-01
4.375238823079862227e-01
4.375238823079862227e-01
4.367596484524264300e-01
4.367596484524264300e-01
4.245319067634696353e-01
4.245319067634696353e-01
4.245319067634696353e-01
4.302636606801681363e-01
4.302636606801681363e-01
4.302636606801681363e-01
4.302636606801681363e-01
4.302636606801681363e-01
4.325563622468475145e-01
4.325563622468475145e-01
4.207107374856706161e-01
4.207107374856706161e-01
4.207107374856706161e-01
4.325563622468475145e-01
4.325563622468475145e-01
4.222392051967902016e-01
4.222392051967902016e-01
4.222392051967902016e-01
4.409629346580053455e-01
4.409629346580053455e-01
4.268246083301490135e-01
4.268246083301490135e-01
4.268246083301490135e-01
4.302636606801681363e-01
4.302636606801681363e-01
4.241497898356897389e-01
4.241497898356897389e-01
4.241497898356897389e-01
4.165074512800917006e-01
4.165074512800917006e-01
4.134505158578525297e-01
4.134505158578525297e-01
4.134505158578525297e-01
4.130683989300725778e-01
4.130683989300725778e-01
4.325563622468475145e-01
4.325563622468475145e-01
4.325563622468475145e-01
4.119220481467328887e-01
4.119220481467328887e-01
4.252961406190294280e-01
4.252961406190294280e-01
4.134505158578525297e-01
4.134505158578525297e-01
4.134505158578525297e-01
4.260603744745892207e-01
4.260603744745892207e-01
4.119220481467328887e-01
4.119220481467328887e-01
4.119220481467328887e-01
4.180359189912112861e-01
4.180359189912112861e-01
4.081008788689338695e-01
4.081008788689338695e-01
4.081008788689338695e-01
4.092472296522736142e-01
4.092472296522736142e-01
4.107756973633931996e-01
4.107756973633931996e-01
4.107756973633931996e-01
3.989300726022163013e-01
3.989300726022163013e-01
4.023691249522353686e-01
4.023691249522353686e-01
4.023691249522353686e-01
3.889950324799388848e-01
3.889950324799388848e-01
3.939625525410775930e-01
3.939625525410775930e-01
3.939625525410775930e-01
3.916698509743981593e-01
3.916698509743981593e-01
3.943446694688574894e-01
3.943446694688574894e-01
3.943446694688574894e-01
3.863202139854795547e-01
3.863202139854795547e-01
3.813526939243408465e-01
3.813526939243408465e-01
3.813526939243408465e-01
3.905235001910584702e-01
3.905235001910584702e-01
3.828811616354604319e-01
3.828811616354604319e-01
3.828811616354604319e-01
3.782957585021016200e-01
3.782957585021016200e-01
3.744745892243026564e-01
3.744745892243026564e-01
3.744745892243026564e-01
3.572793274742070979e-01
3.572793274742070979e-01
3.672143675964845144e-01
3.672143675964845144e-01
3.672143675964845144e-01
3.565150936186473052e-01
3.565150936186473052e-01
3.538402751241879751e-01
3.538402751241879751e-01
3.538402751241879751e-01
3.515475735575085969e-01
3.515475735575085969e-01
3.557508597630875125e-01
3.557508597630875125e-01
3.557508597630875125e-01
3.473442873519296814e-01
3.473442873519296814e-01
3.488727550630492669e-01
3.488727550630492669e-01
3.488727550630492669e-01
3.370271303018723685e-01
3.370271303018723685e-01
3.286205578907145375e-01
3.286205578907145375e-01
3.286205578907145375e-01
3.374092472296522649e-01
3.374092472296522649e-01
3.209782193351165547e-01
3.209782193351165547e-01
3.209782193351165547e-01
3.213603362628964510e-01
3.213603362628964510e-01
3.247993886129155738e-01
3.247993886129155738e-01
3.247993886129155738e-01
3.171570500573175355e-01
3.171570500573175355e-01
3.255636224684753666e-01
3.255636224684753666e-01
3.255636224684753666e-01
3.244172716851356775e-01
3.244172716851356775e-01
3.072220099350401190e-01
3.072220099350401190e-01
3.072220099350401190e-01
2.991975544516621843e-01
2.991975544516621843e-01
3.091325945739396008e-01
3.091325945739396008e-01
3.091325945739396008e-01
3.018723729461215144e-01
3.018723729461215144e-01
2.957585021016431170e-01
2.957585021016431170e-01
2.957585021016431170e-01
2.953763851738632207e-01
2.953763851738632207e-01
3.034008406572410999e-01
3.034008406572410999e-01
3.034008406572410999e-01
2.946121513183034279e-01
2.946121513183034279e-01
2.835307604126862668e-01
2.835307604126862668e-01
2.835307604126862668e-01
2.976690867405425989e-01
2.976690867405425989e-01
3.041650745128008926e-01
3.041650745128008926e-01
3.041650745128008926e-01
2.942300343905234761e-01
2.942300343905234761e-01
2.991975544516621843e-01
2.991975544516621843e-01
2.991975544516621843e-01
2.877340466182651824e-01
2.877340466182651824e-01
2.873519296904852860e-01
2.873519296904852860e-01
2.873519296904852860e-01
2.785632403515475586e-01
2.785632403515475586e-01
2.789453572793274549e-01
2.789453572793274549e-01
2.789453572793274549e-01
2.785632403515475586e-01
2.785632403515475586e-01
2.686282002292701421e-01
2.686282002292701421e-01
2.686282002292701421e-01
2.758884218570882840e-01
2.758884218570882840e-01
2.747420710737485394e-01
2.747420710737485394e-01
2.747420710737485394e-01
2.881161635460450787e-01
2.881161635460450787e-01
2.720672525792892649e-01
2.720672525792892649e-01
2.720672525792892649e-01
2.793274742071073513e-01
2.793274742071073513e-01
2.686282002292701421e-01
2.686282002292701421e-01
2.686282002292701421e-01
2.648070309514711229e-01
2.648070309514711229e-01
2.716851356515093685e-01
2.716851356515093685e-01
2.716851356515093685e-01
2.751241880015284913e-01
2.751241880015284913e-01
2.793274742071073513e-01
2.793274742071073513e-01
2.793274742071073513e-01
2.777990064959877659e-01
2.777990064959877659e-01
2.621322124570118484e-01
2.621322124570118484e-01
2.621322124570118484e-01
2.667176155903706603e-01
2.667176155903706603e-01
2.682460833014902457e-01
2.682460833014902457e-01
2.682460833014902457e-01
2.747420710737485394e-01
2.747420710737485394e-01
2.667176155903706603e-01
2.667176155903706603e-01
2.667176155903706603e-01
2.583110431792128292e-01
2.583110431792128292e-01
2.701566679403897830e-01
2.701566679403897830e-01
2.701566679403897830e-01
2.579289262514329328e-01
2.579289262514329328e-01
2.644249140236912266e-01
2.644249140236912266e-01
2.644249140236912266e-01
2.583110431792128292e-01
2.583110431792128292e-01
2.697745510126098312e-01
2.697745510126098312e-01
2.697745510126098312e-01
2.777990064959877659e-01
2.777990064959877659e-01
2.651891478792510748e-01
2.651891478792510748e-01
2.651891478792510748e-01
2.613679786014520556e-01
2.613679786014520556e-01
2.674818494459304530e-01
2.674818494459304530e-01
2.705387848681696794e-01
2.705387848681696794e-01
2.705387848681696794e-01
2.476117692013756200e-01
2.476117692013756200e-01
2.590752770347726219e-01
2.590752770347726219e-01
2.590752770347726219e-01
2.575468093236530365e-01
2.575468093236530365e-01
2.556362246847535546e-01
2.556362246847535546e-01
2.556362246847535546e-01
2.449369507069163177e-01
2.449369507069163177e-01
2.499044707680550259e-01
2.499044707680550259e-01
2.499044707680550259e-01
2.663354986625907639e-01
2.663354986625907639e-01
2.449369507069163177e-01
2.449369507069163177e-01
2.449369507069163177e-01
2.602216278181123665e-01
2.602216278181123665e-01
2.453190676346962140e-01
2.453190676346962140e-01
2.453190676346962140e-01
2.479938861291555163e-01
2.479938861291555163e-01
2.575468093236530365e-01
2.575468093236530365e-01
2.575468093236530365e-01
2.445548337791364213e-01
2.445548337791364213e-01
2.506687046236148464e-01
2.506687046236148464e-01
2.506687046236148464e-01
2.411157814291172985e-01
2.411157814291172985e-01
2.510508215513947428e-01
2.510508215513947428e-01
2.510508215513947428e-01
2.342376767290791084e-01
2.342376767290791084e-01
2.361482613679785902e-01
2.361482613679785902e-01
2.361482613679785902e-01
2.369124952235384107e-01
2.369124952235384107e-01
2.468475353458158272e-01
2.468475353458158272e-01
2.468475353458158272e-01
2.342376767290791084e-01
2.342376767290791084e-01
2.380588460068780998e-01
2.380588460068780998e-01
2.380588460068780998e-01
