1.937332823844096219e-01
1.937332823844096219e-01
1.887657623232709136e-01
1.887657623232709136e-01
1.956438670233091315e-01
1.956438670233091315e-01
1.956438670233091315e-01
1.872372946121513282e-01
1.872372946121513282e-01
1.906763469621704232e-01
1.906763469621704232e-01
1.906763469621704232e-01
1.948796331677493388e-01
1.948796331677493388e-01
1.975544516622086411e-01
1.975544516622086411e-01
1.975544516622086411e-01
1.960259839510890278e-01
1.960259839510890278e-01
1.987008024455483302e-01
1.987008024455483302e-01
1.987008024455483302e-01
1.872372946121513282e-01
1.872372946121513282e-01
1.941153993121895183e-01
1.941153993121895183e-01
1.941153993121895183e-01
1.887657623232709136e-01
1.887657623232709136e-01
1.853267099732518186e-01
1.853267099732518186e-01
1.853267099732518186e-01
1.849445930454719222e-01
1.849445930454719222e-01
1.971723347344287447e-01
1.971723347344287447e-01
1.971723347344287447e-01
1.860909438288116113e-01
1.860909438288116113e-01
1.895299961788307341e-01
1.895299961788307341e-01
1.895299961788307341e-01
1.872372946121513282e-01
1.872372946121513282e-01
1.983186855177684338e-01
1.983186855177684338e-01
1.983186855177684338e-01
1.849445930454719222e-01
1.849445930454719222e-01
1.891478792510508100e-01
1.891478792510508100e-01
1.891478792510508100e-01
1.895299961788307341e-01
1.895299961788307341e-01
1.937332823844096219e-01
1.937332823844096219e-01
1.937332823844096219e-01
1.899121131066106305e-01
1.899121131066106305e-01
1.883836453954910173e-01
1.883836453954910173e-01
1.883836453954910173e-01
1.990829193733282265e-01
1.990829193733282265e-01
1.933511654566297255e-01
1.933511654566297255e-01
1.933511654566297255e-01
1.906763469621704232e-01
1.906763469621704232e-01
1.979365685899885374e-01
1.979365685899885374e-01
1.979365685899885374e-01
1.880015284677111209e-01
1.880015284677111209e-01
1.952617500955292351e-01
1.952617500955292351e-01
1.952617500955292351e-01
2.032862055789071420e-01
2.032862055789071420e-01
1.853267099732518186e-01
1.853267099732518186e-01
1.853267099732518186e-01
1.925869316010699328e-01
1.925869316010699328e-01
1.872372946121513282e-01
1.872372946121513282e-01
1.872372946121513282e-01
1.918226977455101123e-01
1.918226977455101123e-01
1.914405808177302160e-01
1.914405808177302160e-01
1.914405808177302160e-01
1.933511654566297255e-01
1.933511654566297255e-01
1.922048146732900364e-01
1.922048146732900364e-01
1.922048146732900364e-01
1.990829193733282265e-01
1.990829193733282265e-01
1.899121131066106305e-01
1.899121131066106305e-01
1.960259839510890278e-01
1.960259839510890278e-01
1.960259839510890278e-01
1.944975162399694424e-01
1.944975162399694424e-01
1.891478792510508100e-01
1.891478792510508100e-01
1.891478792510508100e-01
1.906763469621704232e-01
1.906763469621704232e-01
1.895299961788307341e-01
1.895299961788307341e-01
1.895299961788307341e-01
1.906763469621704232e-01
1.906763469621704232e-01
1.891478792510508100e-01
1.891478792510508100e-01
1.891478792510508100e-01
1.941153993121895183e-01
1.941153993121895183e-01
1.925869316010699328e-01
1.925869316010699328e-01
1.925869316010699328e-01
1.883836453954910173e-01
1.883836453954910173e-01
1.994650363011081506e-01
1.994650363011081506e-01
1.994650363011081506e-01
1.914405808177302160e-01
1.914405808177302160e-01
1.929690485288498292e-01
1.929690485288498292e-01
1.929690485288498292e-01
1.914405808177302160e-01
1.914405808177302160e-01
2.021398547955674529e-01
2.021398547955674529e-01
2.021398547955674529e-01
1.883836453954910173e-01
1.883836453954910173e-01
1.983186855177684338e-01
1.983186855177684338e-01
1.983186855177684338e-01
1.990829193733282265e-01
1.990829193733282265e-01
1.933511654566297255e-01
1.933511654566297255e-01
1.933511654566297255e-01
1.960259839510890278e-01
1.960259839510890278e-01
1.964081008788689242e-01
1.964081008788689242e-01
1.964081008788689242e-01
1.998471532288880470e-01
1.998471532288880470e-01
1.967902178066488483e-01
1.967902178066488483e-01
1.967902178066488483e-01
1.964081008788689242e-01
1.964081008788689242e-01
1.937332823844096219e-01
1.937332823844096219e-01
1.937332823844096219e-01
1.914405808177302160e-01
1.914405808177302160e-01
1.952617500955292351e-01
1.952617500955292351e-01
1.952617500955292351e-01
1.960259839510890278e-01
1.960259839510890278e-01
1.910584638899503196e-01
1.910584638899503196e-01
1.910584638899503196e-01
2.009935040122277361e-01
2.009935040122277361e-01
2.021398547955674529e-01
2.021398547955674529e-01
2.021398547955674529e-01
2.017577378677875566e-01
2.017577378677875566e-01
2.009935040122277361e-01
2.009935040122277361e-01
2.009935040122277361e-01
2.021398547955674529e-01
2.021398547955674529e-01
2.032862055789071420e-01
2.032862055789071420e-01
2.032862055789071420e-01
2.086358425678257467e-01
2.086358425678257467e-01
2.166602980512036813e-01
2.166602980512036813e-01
2.166602980512036813e-01
2.128391287734046622e-01
2.128391287734046622e-01
2.128391287734046622e-01
2.128391287734046622e-01
2.128391287734046622e-01
2.235384027512418714e-01
2.235384027512418714e-01
2.128391287734046622e-01
2.128391287734046622e-01
2.128391287734046622e-01
2.208635842567825691e-01
2.208635842567825691e-01
2.258311043179212774e-01
2.258311043179212774e-01
2.258311043179212774e-01
2.311807413068398820e-01
2.311807413068398820e-01
2.369124952235384107e-01
2.369124952235384107e-01
2.369124952235384107e-01
2.323270920901795988e-01
2.323270920901795988e-01
2.441727168513565249e-01
2.441727168513565249e-01
2.441727168513565249e-01
2.457011845624761104e-01
2.457011845624761104e-01
2.395873137179977130e-01
2.395873137179977130e-01
2.395873137179977130e-01
2.613679786014520556e-01
2.613679786014520556e-01
2.560183416125334510e-01
2.560183416125334510e-01
2.560183416125334510e-01
2.663354986625907639e-01
2.663354986625907639e-01
2.705387848681696794e-01
2.705387848681696794e-01
2.705387848681696794e-01
2.617500955292319520e-01
2.617500955292319520e-01
2.762705387848681804e-01
2.762705387848681804e-01
2.762705387848681804e-01
2.812380588460068886e-01
2.812380588460068886e-01
2.846771111960260114e-01
2.846771111960260114e-01
2.846771111960260114e-01
2.934658005349636833e-01
2.934658005349636833e-01
2.854413450515858042e-01
2.854413450515858042e-01
2.854413450515858042e-01
3.003439052350019289e-01
3.003439052350019289e-01
2.972869698127627025e-01
2.972869698127627025e-01
2.972869698127627025e-01
2.969048528849828061e-01
2.969048528849828061e-01
2.915552158960642015e-01
2.915552158960642015e-01
2.915552158960642015e-01
3.045471914405808445e-01
3.045471914405808445e-01
2.976690867405425989e-01
2.976690867405425989e-01
2.976690867405425989e-01
3.022544898739014108e-01
3.022544898739014108e-01
3.030187237294612035e-01
3.030187237294612035e-01
3.030187237294612035e-01
3.106610622850592418e-01
3.106610622850592418e-01
3.110431792128391382e-01
3.110431792128391382e-01
3.110431792128391382e-01
3.209782193351165547e-01
3.209782193351165547e-01
3.255636224684753666e-01
3.255636224684753666e-01
3.255636224684753666e-01
3.232709209017959329e-01
3.232709209017959329e-01
3.309132594573939712e-01
3.309132594573939712e-01
3.309132594573939712e-01
3.236530378295758292e-01
3.236530378295758292e-01
3.228888039740160365e-01
3.228888039740160365e-01
3.228888039740160365e-01
3.232709209017959329e-01
3.232709209017959329e-01
3.309132594573939712e-01
3.309132594573939712e-01
3.309132594573939712e-01
3.335880779518532457e-01
3.335880779518532457e-01
3.305311425296140748e-01
3.305311425296140748e-01
3.305311425296140748e-01
3.328238440962934530e-01
3.328238440962934530e-01
3.366450133740924722e-01
3.366450133740924722e-01
3.389377149407718504e-01
3.389377149407718504e-01
3.389377149407718504e-01
3.400840657241115950e-01
3.400840657241115950e-01
3.301490256018341785e-01
3.301490256018341785e-01
3.301490256018341785e-01
3.408482995796713877e-01
3.408482995796713877e-01
3.400840657241115950e-01
3.400840657241115950e-01
3.400840657241115950e-01
3.397019487963316986e-01
3.397019487963316986e-01
3.454337027130301996e-01
3.454337027130301996e-01
3.454337027130301996e-01
3.377913641574321613e-01
3.377913641574321613e-01
3.374092472296522649e-01
3.374092472296522649e-01
3.374092472296522649e-01
3.446694688574704069e-01
3.446694688574704069e-01
3.358807795185326794e-01
3.358807795185326794e-01
3.358807795185326794e-01
3.374092472296522649e-01
3.374092472296522649e-01
3.316774933129537639e-01
3.316774933129537639e-01
3.316774933129537639e-01
3.400840657241115950e-01
3.400840657241115950e-01
3.389377149407718504e-01
3.389377149407718504e-01
3.389377149407718504e-01
3.461979365685899923e-01
3.461979365685899923e-01
3.362628964463125758e-01
3.362628964463125758e-01
3.362628964463125758e-01
3.412304165074512841e-01
3.412304165074512841e-01
3.435231180741306622e-01
3.435231180741306622e-01
3.435231180741306622e-01
3.431410011463507659e-01
3.431410011463507659e-01
3.435231180741306622e-01
3.435231180741306622e-01
3.435231180741306622e-01
3.488727550630492669e-01
3.488727550630492669e-01
3.358807795185326794e-01
3.358807795185326794e-01
3.358807795185326794e-01
3.366450133740924722e-01
3.366450133740924722e-01
3.416125334352311804e-01
3.416125334352311804e-01
3.416125334352311804e-01
3.435231180741306622e-01
3.435231180741306622e-01
3.442873519296905105e-01
3.442873519296905105e-01
3.442873519296905105e-01
3.404661826518914913e-01
3.404661826518914913e-01
3.469621704241497850e-01
3.469621704241497850e-01
3.469621704241497850e-01
3.397019487963316986e-01
3.397019487963316986e-01
3.465800534963698887e-01
3.465800534963698887e-01
3.465800534963698887e-01
3.458158196408100959e-01
3.458158196408100959e-01
3.427588842185708695e-01
3.427588842185708695e-01
3.427588842185708695e-01
3.381734810852120576e-01
3.381734810852120576e-01
3.362628964463125758e-01
3.362628964463125758e-01
3.362628964463125758e-01
3.419946503630110768e-01
3.419946503630110768e-01
3.335880779518532457e-01
3.335880779518532457e-01
3.335880779518532457e-01
3.400840657241115950e-01
3.400840657241115950e-01
3.423767672907909732e-01
3.423767672907909732e-01
3.423767672907909732e-01
3.446694688574704069e-01
3.446694688574704069e-01
3.461979365685899923e-01
3.461979365685899923e-01
3.461979365685899923e-01
3.446694688574704069e-01
3.446694688574704069e-01
3.374092472296522649e-01
3.374092472296522649e-01
3.374092472296522649e-01
3.427588842185708695e-01
3.427588842185708695e-01
3.385555980129919540e-01
3.385555980129919540e-01
3.385555980129919540e-01
3.320596102407336603e-01
3.320596102407336603e-01
3.416125334352311804e-01
3.416125334352311804e-01
3.416125334352311804e-01
3.358807795185326794e-01
3.358807795185326794e-01
3.419946503630110768e-01
3.419946503630110768e-01
3.419946503630110768e-01
3.343523118074130940e-01
3.343523118074130940e-01
3.335880779518532457e-01
3.335880779518532457e-01
3.335880779518532457e-01
3.278563240351547448e-01
3.278563240351547448e-01
3.293847917462743857e-01
3.293847917462743857e-01
3.293847917462743857e-01
3.389377149407718504e-01
3.389377149407718504e-01
3.263278563240351593e-01
3.263278563240351593e-01
3.263278563240351593e-01
3.351165456629728867e-01
3.351165456629728867e-01
3.244172716851356775e-01
3.244172716851356775e-01
3.244172716851356775e-01
3.251815055406954702e-01
3.251815055406954702e-01
3.351165456629728867e-01
3.351165456629728867e-01
3.351165456629728867e-01
3.270920901795949520e-01
3.270920901795949520e-01
3.297669086740542821e-01
3.297669086740542821e-01
3.297669086740542821e-01
3.270920901795949520e-01
3.270920901795949520e-01
3.259457393962552629e-01
3.259457393962552629e-01
3.259457393962552629e-01
3.221245701184562438e-01
3.221245701184562438e-01
3.213603362628964510e-01
3.213603362628964510e-01
3.213603362628964510e-01
3.244172716851356775e-01
3.244172716851356775e-01
3.141001146350783091e-01
3.141001146350783091e-01
3.141001146350783091e-01
3.144822315628582610e-01
3.144822315628582610e-01
3.198318685517768656e-01
3.198318685517768656e-01
3.198318685517768656e-01
3.079862437905999117e-01
3.079862437905999117e-01
3.125716469239587236e-01
3.125716469239587236e-01
3.125716469239587236e-01
3.026366068016813071e-01
3.026366068016813071e-01
3.064577760794803263e-01
3.064577760794803263e-01
3.064577760794803263e-01
3.022544898739014108e-01
3.022544898739014108e-01
3.011081390905617217e-01
3.011081390905617217e-01
3.011081390905617217e-01
3.030187237294612035e-01
3.030187237294612035e-01
2.927015666794038906e-01
2.927015666794038906e-01
2.927015666794038906e-01
2.999617883072220326e-01
2.999617883072220326e-01
2.984333205961023916e-01
2.984333205961023916e-01
2.984333205961023916e-01
2.957585021016431170e-01
2.957585021016431170e-01
2.907909820405044088e-01
2.907909820405044088e-01
2.995796713794421362e-01
2.995796713794421362e-01
2.995796713794421362e-01
2.976690867405425989e-01
2.976690867405425989e-01
2.888803974016048715e-01
2.888803974016048715e-01
2.888803974016048715e-01
2.797095911348873032e-01
2.797095911348873032e-01
2.770347726404279731e-01
2.770347726404279731e-01
2.770347726404279731e-01
2.804738249904470959e-01
2.804738249904470959e-01
2.823844096293465777e-01
2.823844096293465777e-01
2.823844096293465777e-01
2.812380588460068886e-01
2.812380588460068886e-01
2.770347726404279731e-01
2.770347726404279731e-01
2.770347726404279731e-01
2.686282002292701421e-01
2.686282002292701421e-01
2.651891478792510748e-01
2.651891478792510748e-01
2.651891478792510748e-01
2.770347726404279731e-01
2.770347726404279731e-01
2.625143293847917447e-01
2.625143293847917447e-01
2.625143293847917447e-01
2.701566679403897830e-01
2.701566679403897830e-01
2.617500955292319520e-01
2.617500955292319520e-01
2.617500955292319520e-01
2.579289262514329328e-01
2.579289262514329328e-01
2.606037447458922629e-01
2.606037447458922629e-01
2.606037447458922629e-01
2.544898739014138100e-01
2.544898739014138100e-01
2.617500955292319520e-01
2.617500955292319520e-01
2.617500955292319520e-01
2.586931601069927256e-01
2.586931601069927256e-01
2.521971723347344319e-01
2.521971723347344319e-01
2.521971723347344319e-01
2.602216278181123665e-01
2.602216278181123665e-01
2.575468093236530365e-01
2.575468093236530365e-01
2.575468093236530365e-01
2.537256400458540173e-01
2.537256400458540173e-01
2.579289262514329328e-01
2.579289262514329328e-01
2.579289262514329328e-01
2.583110431792128292e-01
2.583110431792128292e-01
2.602216278181123665e-01
2.602216278181123665e-01
2.602216278181123665e-01
2.537256400458540173e-01
2.537256400458540173e-01
2.586931601069927256e-01
2.586931601069927256e-01
2.586931601069927256e-01
2.541077569736339137e-01
2.541077569736339137e-01
2.571646923958731401e-01
2.571646923958731401e-01
2.571646923958731401e-01
2.491402369124952332e-01
2.491402369124952332e-01
2.571646923958731401e-01
2.571646923958731401e-01
2.571646923958731401e-01
2.510508215513947428e-01
2.510508215513947428e-01
2.464654184180359309e-01
2.464654184180359309e-01
2.464654184180359309e-01
2.567825754680932437e-01
2.567825754680932437e-01
2.434084829957967044e-01
2.434084829957967044e-01
2.434084829957967044e-01
2.529614061902942246e-01
2.529614061902942246e-01
2.533435231180741209e-01
2.533435231180741209e-01
2.533435231180741209e-01
2.376767290790982035e-01
2.376767290790982035e-01
2.418800152846771190e-01
2.418800152846771190e-01
2.418800152846771190e-01
2.472296522735957236e-01
2.472296522735957236e-01
2.437905999235766008e-01
2.437905999235766008e-01
2.437905999235766008e-01
2.392051967902178167e-01
2.392051967902178167e-01
2.529614061902942246e-01
2.529614061902942246e-01
2.529614061902942246e-01
2.418800152846771190e-01
2.418800152846771190e-01
2.434084829957967044e-01
2.434084829957967044e-01
2.434084829957967044e-01
2.479938861291555163e-01
2.479938861291555163e-01
2.518150554069545355e-01
2.518150554069545355e-01
2.518150554069545355e-01
2.418800152846771190e-01
2.418800152846771190e-01
2.407336645013374021e-01
2.407336645013374021e-01
2.407336645013374021e-01
2.384409629346579962e-01
2.384409629346579962e-01
2.361482613679785902e-01
2.361482613679785902e-01
2.361482613679785902e-01
2.411157814291172985e-01
2.411157814291172985e-01
2.388230798624378926e-01
2.388230798624378926e-01
2.388230798624378926e-01
2.437905999235766008e-01
2.437905999235766008e-01
2.430263660680168081e-01
2.430263660680168081e-01
2.430263660680168081e-01
2.311807413068398820e-01
2.311807413068398820e-01
2.311807413068398820e-01
2.311807413068398820e-01
2.311807413068398820e-01
2.288880397401604760e-01
2.288880397401604760e-01
2.311807413068398820e-01
2.311807413068398820e-01
2.311807413068398820e-01
2.288880397401604760e-01
2.288880397401604760e-01
2.376767290790982035e-01
2.376767290790982035e-01
2.376767290790982035e-01
2.304165074512800893e-01
2.304165074512800893e-01
2.235384027512418714e-01
2.235384027512418714e-01
2.235384027512418714e-01
2.369124952235384107e-01
2.369124952235384107e-01
2.250668704623614846e-01
2.250668704623614846e-01
2.250668704623614846e-01
2.327092090179594952e-01
2.327092090179594952e-01
2.311807413068398820e-01
2.311807413068398820e-01
2.311807413068398820e-01
2.327092090179594952e-01
2.327092090179594952e-01
2.330913259457393916e-01
2.330913259457393916e-01
2.330913259457393916e-01
2.208635842567825691e-01
2.208635842567825691e-01
2.265953381734810979e-01
2.265953381734810979e-01
2.265953381734810979e-01
2.178066488345433704e-01
2.178066488345433704e-01
2.235384027512418714e-01
2.235384027512418714e-01
2.235384027512418714e-01
2.223920519679021823e-01
2.223920519679021823e-01
2.197172334734428800e-01
2.197172334734428800e-01
2.197172334734428800e-01
2.220099350401222860e-01
2.220099350401222860e-01
2.113106610622850490e-01
2.113106610622850490e-01
2.113106610622850490e-01
2.147497134123041718e-01
2.147497134123041718e-01
2.128391287734046622e-01
2.128391287734046622e-01
2.128391287734046622e-01
2.147497134123041718e-01
2.147497134123041718e-01
2.166602980512036813e-01
2.166602980512036813e-01
2.139854795567443513e-01
2.139854795567443513e-01
2.139854795567443513e-01
2.178066488345433704e-01
2.178066488345433704e-01
2.158960641956438609e-01
2.158960641956438609e-01
2.158960641956438609e-01
2.220099350401222860e-01
2.220099350401222860e-01
2.067252579289262648e-01
2.067252579289262648e-01
2.067252579289262648e-01
2.223920519679021823e-01
2.223920519679021823e-01
2.105464272067252562e-01
2.105464272067252562e-01
2.105464272067252562e-01
2.124570118456247658e-01
2.124570118456247658e-01
2.250668704623614846e-01
2.250668704623614846e-01
2.250668704623614846e-01
2.139854795567443513e-01
2.139854795567443513e-01
2.174245319067634741e-01
2.174245319067634741e-01
2.174245319067634741e-01
2.059610240733664444e-01
2.059610240733664444e-01
2.059610240733664444e-01
2.059610240733664444e-01
2.059610240733664444e-01
2.078716087122659539e-01
2.078716087122659539e-01
2.105464272067252562e-01
2.105464272067252562e-01
2.105464272067252562e-01
2.120748949178448695e-01
2.120748949178448695e-01
2.132212457011845586e-01
2.132212457011845586e-01
2.132212457011845586e-01
2.055789071455865480e-01
2.055789071455865480e-01
2.002292701566679434e-01
2.002292701566679434e-01
2.002292701566679434e-01
2.097821933511654635e-01
2.097821933511654635e-01
2.078716087122659539e-01
2.078716087122659539e-01
2.078716087122659539e-01
2.113106610622850490e-01
2.113106610622850490e-01
1.967902178066488483e-01
1.967902178066488483e-01
1.967902178066488483e-01
2.006113870844478397e-01
2.006113870844478397e-01
2.051967902178066516e-01
2.051967902178066516e-01
2.051967902178066516e-01
1.983186855177684338e-01
1.983186855177684338e-01
1.964081008788689242e-01
1.964081008788689242e-01
1.964081008788689242e-01
2.036683225066870384e-01
2.036683225066870384e-01
2.025219717233473493e-01
2.025219717233473493e-01
2.025219717233473493e-01
2.040504394344669348e-01
2.040504394344669348e-01
2.074894917844860576e-01
2.074894917844860576e-01
2.074894917844860576e-01
1.964081008788689242e-01
1.964081008788689242e-01
2.029040886511272457e-01
2.029040886511272457e-01
2.029040886511272457e-01
1.998471532288880470e-01
1.998471532288880470e-01
2.059610240733664444e-01
2.059610240733664444e-01
2.059610240733664444e-01
2.048146732900267553e-01
2.048146732900267553e-01
1.948796331677493388e-01
1.948796331677493388e-01
1.948796331677493388e-01
1.925869316010699328e-01
1.925869316010699328e-01
2.013756209400076325e-01
2.013756209400076325e-01
2.013756209400076325e-01
1.952617500955292351e-01
1.952617500955292351e-01
1.922048146732900364e-01
1.922048146732900364e-01
1.922048146732900364e-01
1.964081008788689242e-01
1.964081008788689242e-01
2.021398547955674529e-01
2.021398547955674529e-01
2.021398547955674529e-01
1.910584638899503196e-01
1.910584638899503196e-01
1.952617500955292351e-01
1.952617500955292351e-01
1.952617500955292351e-01
1.971723347344287447e-01
1.971723347344287447e-01
2.013756209400076325e-01
2.013756209400076325e-01
2.013756209400076325e-01
1.960259839510890278e-01
1.960259839510890278e-01
1.933511654566297255e-01
1.933511654566297255e-01
1.933511654566297255e-01
1.990829193733282265e-01
1.990829193733282265e-01
1.948796331677493388e-01
1.948796331677493388e-01
1.948796331677493388e-01
1.891478792510508100e-01
1.891478792510508100e-01
1.975544516622086411e-01
1.975544516622086411e-01
1.975544516622086411e-01
1.880015284677111209e-01
1.880015284677111209e-01
1.956438670233091315e-01
1.956438670233091315e-01
1.956438670233091315e-01
1.918226977455101123e-01
1.918226977455101123e-01
1.994650363011081506e-01
1.994650363011081506e-01
1.994650363011081506e-01
1.918226977455101123e-01
1.918226977455101123e-01
1.899121131066106305e-01
1.899121131066106305e-01
1.899121131066106305e-01
1.922048146732900364e-01
1.922048146732900364e-01
1.998471532288880470e-01
1.998471532288880470e-01
1.998471532288880470e-01
1.845624761176920259e-01
1.845624761176920259e-01
1.998471532288880470e-01
1.998471532288880470e-01
1.998471532288880470e-01
1.987008024455483302e-01
1.987008024455483302e-01
1.956438670233091315e-01
1.956438670233091315e-01
1.956438670233091315e-01
1.837982422621322054e-01
1.837982422621322054e-01
1.983186855177684338e-01
1.983186855177684338e-01
1.983186855177684338e-01
1.864730607565915077e-01
1.864730607565915077e-01
1.956438670233091315e-01
1.956438670233091315e-01
1.956438670233091315e-01
1.941153993121895183e-01
1.941153993121895183e-01
2.021398547955674529e-01
2.021398547955674529e-01
2.021398547955674529e-01
1.944975162399694424e-01
1.944975162399694424e-01
1.967902178066488483e-01
1.967902178066488483e-01
1.967902178066488483e-01
1.899121131066106305e-01
1.899121131066106305e-01
1.880015284677111209e-01
1.880015284677111209e-01
1.880015284677111209e-01
1.956438670233091315e-01
1.956438670233091315e-01
1.868551776843714041e-01
1.868551776843714041e-01
1.868551776843714041e-01
1.853267099732518186e-01
1.853267099732518186e-01
1.876194115399312246e-01
1.876194115399312246e-01
1.876194115399312246e-01
1.948796331677493388e-01
1.948796331677493388e-01
1.914405808177302160e-01
1.914405808177302160e-01
1.960259839510890278e-01
1.960259839510890278e-01
1.960259839510890278e-01
1.971723347344287447e-01
1.971723347344287447e-01
1.849445930454719222e-01
1.849445930454719222e-01
1.849445930454719222e-01
1.944975162399694424e-01
1.944975162399694424e-01
1.944975162399694424e-01
1.944975162399694424e-01
1.944975162399694424e-01
1.902942300343905269e-01
1.902942300343905269e-01
1.880015284677111209e-01
1.880015284677111209e-01
1.880015284677111209e-01
1.845624761176920259e-01
1.845624761176920259e-01
1.937332823844096219e-01
1.937332823844096219e-01
1.937332823844096219e-01
1.918226977455101123e-01
1.918226977455101123e-01
1.864730607565915077e-01
1.864730607565915077e-01
1.864730607565915077e-01
1.899121131066106305e-01
1.899121131066106305e-01
1.860909438288116113e-01
1.860909438288116113e-01
1.860909438288116113e-01
1.971723347344287447e-01
1.971723347344287447e-01
1.845624761176920259e-01
1.845624761176920259e-01
1.845624761176920259e-01
1.887657623232709136e-01
1.887657623232709136e-01
1.799770729843332140e-01
1.799770729843332140e-01
1.799770729843332140e-01
1.979365685899885374e-01
1.979365685899885374e-01
1.948796331677493388e-01
1.948796331677493388e-01
1.948796331677493388e-01
1.857088269010317150e-01
1.857088269010317150e-01
1.971723347344287447e-01
1.971723347344287447e-01
1.971723347344287447e-01
1.864730607565915077e-01
1.864730607565915077e-01
1.815055406954527994e-01
1.815055406954527994e-01
1.815055406954527994e-01
1.864730607565915077e-01
1.864730607565915077e-01
1.887657623232709136e-01
1.887657623232709136e-01
1.887657623232709136e-01
1.998471532288880470e-01
1.998471532288880470e-01
1.891478792510508100e-01
1.891478792510508100e-01
1.891478792510508100e-01
1.811234237676729031e-01
1.811234237676729031e-01
1.895299961788307341e-01
1.895299961788307341e-01
1.895299961788307341e-01
1.864730607565915077e-01
1.864730607565915077e-01
1.857088269010317150e-01
1.857088269010317150e-01
1.857088269010317150e-01
1.937332823844096219e-01
1.937332823844096219e-01
1.803591899121131104e-01
1.803591899121131104e-01
1.803591899121131104e-01
1.960259839510890278e-01
1.960259839510890278e-01
1.864730607565915077e-01
1.864730607565915077e-01
1.864730607565915077e-01
1.971723347344287447e-01
1.971723347344287447e-01
1.860909438288116113e-01
1.860909438288116113e-01
1.860909438288116113e-01
1.822697745510126199e-01
1.822697745510126199e-01
1.941153993121895183e-01
1.941153993121895183e-01
1.941153993121895183e-01
1.956438670233091315e-01
1.956438670233091315e-01
1.941153993121895183e-01
1.941153993121895183e-01
1.941153993121895183e-01
1.864730607565915077e-01
1.864730607565915077e-01
1.960259839510890278e-01
1.960259839510890278e-01
1.960259839510890278e-01
2.009935040122277361e-01
2.009935040122277361e-01
1.960259839510890278e-01
1.960259839510890278e-01
1.960259839510890278e-01
1.880015284677111209e-01
1.880015284677111209e-01
1.952617500955292351e-01
1.952617500955292351e-01
1.952617500955292351e-01
1.960259839510890278e-01
1.960259839510890278e-01
1.956438670233091315e-01
1.956438670233091315e-01
1.956438670233091315e-01
1.910584638899503196e-01
1.910584638899503196e-01
2.013756209400076325e-01
2.013756209400076325e-01
2.013756209400076325e-01
1.933511654566297255e-01
1.933511654566297255e-01
1.979365685899885374e-01
1.979365685899885374e-01
1.979365685899885374e-01
1.887657623232709136e-01
1.887657623232709136e-01
1.837982422621322054e-01
1.837982422621322054e-01
1.837982422621322054e-01
1.902942300343905269e-01
1.902942300343905269e-01
1.941153993121895183e-01
1.941153993121895183e-01
1.941153993121895183e-01
2.006113870844478397e-01
2.006113870844478397e-01
1.857088269010317150e-01
1.857088269010317150e-01
1.857088269010317150e-01
1.872372946121513282e-01
1.872372946121513282e-01
2.002292701566679434e-01
2.002292701566679434e-01
2.002292701566679434e-01
1.883836453954910173e-01
1.883836453954910173e-01
1.872372946121513282e-01
1.872372946121513282e-01
1.872372946121513282e-01
1.872372946121513282e-01
1.872372946121513282e-01
1.933511654566297255e-01
1.933511654566297255e-01
1.933511654566297255e-01
1.952617500955292351e-01
1.952617500955292351e-01
1.853267099732518186e-01
1.853267099732518186e-01
1.853267099732518186e-01
1.853267099732518186e-01
1.853267099732518186e-01
1.895299961788307341e-01
1.895299961788307341e-01
1.895299961788307341e-01
1.868551776843714041e-01
1.868551776843714041e-01
1.849445930454719222e-01
1.849445930454719222e-01
1.849445930454719222e-01
1.883836453954910173e-01
1.883836453954910173e-01
1.987008024455483302e-01
1.987008024455483302e-01
1.987008024455483302e-01
1.899121131066106305e-01
1.899121131066106305e-01
1.998471532288880470e-01
1.998471532288880470e-01
1.998471532288880470e-01
1.979365685899885374e-01
1.979365685899885374e-01
1.925869316010699328e-01
1.925869316010699328e-01
1.925869316010699328e-01
1.964081008788689242e-01
1.964081008788689242e-01
1.880015284677111209e-01
1.880015284677111209e-01
1.880015284677111209e-01
1.929690485288498292e-01
1.929690485288498292e-01
1.891478792510508100e-01
1.891478792510508100e-01
1.872372946121513282e-01
1.872372946121513282e-01
1.872372946121513282e-01
1.952617500955292351e-01
1.952617500955292351e-01
1.891478792510508100e-01
1.891478792510508100e-01
1.891478792510508100e-01
1.899121131066106305e-01
1.899121131066106305e-01
1.868551776843714041e-01
1.868551776843714041e-01
1.868551776843714041e-01
1.971723347344287447e-01
1.971723347344287447e-01
1.994650363011081506e-01
1.994650363011081506e-01
1.994650363011081506e-01
1.857088269010317150e-01
1.857088269010317150e-01
1.895299961788307341e-01
1.895299961788307341e-01
1.895299961788307341e-01
2.029040886511272457e-01
2.029040886511272457e-01
1.960259839510890278e-01
1.960259839510890278e-01
1.960259839510890278e-01
1.990829193733282265e-01
1.990829193733282265e-01
1.906763469621704232e-01
1.906763469621704232e-01
1.906763469621704232e-01
2.029040886511272457e-01
2.029040886511272457e-01
1.990829193733282265e-01
1.990829193733282265e-01
1.990829193733282265e-01
1.967902178066488483e-01
1.967902178066488483e-01
1.929690485288498292e-01
1.929690485288498292e-01
1.929690485288498292e-01
2.036683225066870384e-01
2.036683225066870384e-01
2.036683225066870384e-01
2.036683225066870384e-01
2.036683225066870384e-01
2.051967902178066516e-01
2.051967902178066516e-01
1.983186855177684338e-01
1.983186855177684338e-01
1.983186855177684338e-01
2.124570118456247658e-01
2.124570118456247658e-01
2.078716087122659539e-01
2.078716087122659539e-01
2.078716087122659539e-01
2.204814673290026728e-01
2.204814673290026728e-01
2.132212457011845586e-01
2.132212457011845586e-01
2.132212457011845586e-01
2.166602980512036813e-01
2.166602980512036813e-01
2.235384027512418714e-01
2.235384027512418714e-01
2.235384027512418714e-01
2.200993504012227764e-01
2.200993504012227764e-01
2.315628582346198061e-01
2.315628582346198061e-01
2.315628582346198061e-01
2.369124952235384107e-01
2.369124952235384107e-01
2.399694306457776094e-01
2.399694306457776094e-01
2.399694306457776094e-01
2.304165074512800893e-01
2.304165074512800893e-01
2.460833014902560067e-01
2.460833014902560067e-01
2.460833014902560067e-01
2.583110431792128292e-01
2.583110431792128292e-01
2.449369507069163177e-01
2.449369507069163177e-01
2.449369507069163177e-01
2.464654184180359309e-01
2.464654184180359309e-01
2.541077569736339137e-01
2.541077569736339137e-01
2.541077569736339137e-01
2.613679786014520556e-01
2.613679786014520556e-01
2.720672525792892649e-01
2.720672525792892649e-01
2.720672525792892649e-01
2.720672525792892649e-01
2.720672525792892649e-01
2.735957202904088503e-01
2.735957202904088503e-01
2.735957202904088503e-01
2.785632403515475586e-01
2.785632403515475586e-01
2.709209017959495758e-01
2.709209017959495758e-01
2.709209017959495758e-01
2.881161635460450787e-01
2.881161635460450787e-01
2.923194497516239942e-01
2.923194497516239942e-01
2.923194497516239942e-01
2.949942682460833243e-01
2.949942682460833243e-01
2.930836836071837870e-01
2.930836836071837870e-01
2.930836836071837870e-01
2.976690867405425989e-01
2.976690867405425989e-01
2.965227359572029098e-01
2.965227359572029098e-01
2.965227359572029098e-01
2.984333205961023916e-01
2.984333205961023916e-01
3.034008406572410999e-01
3.034008406572410999e-01
3.034008406572410999e-01
3.045471914405808445e-01
3.045471914405808445e-01
3.110431792128391382e-01
3.110431792128391382e-01
3.110431792128391382e-01
3.114252961406190345e-01
3.114252961406190345e-01
3.079862437905999117e-01
3.079862437905999117e-01
3.079862437905999117e-01
3.156285823461979501e-01
3.156285823461979501e-01
3.244172716851356775e-01
3.244172716851356775e-01
3.244172716851356775e-01
3.202139854795567619e-01
3.202139854795567619e-01
3.163928162017577428e-01
3.163928162017577428e-01
3.163928162017577428e-01
3.144822315628582610e-01
3.144822315628582610e-01
3.217424531906763474e-01
3.217424531906763474e-01
3.217424531906763474e-01
3.255636224684753666e-01
3.255636224684753666e-01
3.228888039740160365e-01
3.228888039740160365e-01
3.228888039740160365e-01
3.324417271685135566e-01
3.324417271685135566e-01
3.274742071073748484e-01
3.274742071073748484e-01
3.274742071073748484e-01
3.236530378295758292e-01
3.236530378295758292e-01
3.374092472296522649e-01
3.374092472296522649e-01
3.374092472296522649e-01
3.335880779518532457e-01
3.335880779518532457e-01
3.328238440962934530e-01
3.328238440962934530e-01
3.328238440962934530e-01
3.282384409629346411e-01
3.282384409629346411e-01
3.416125334352311804e-01
3.416125334352311804e-01
3.416125334352311804e-01
3.397019487963316986e-01
3.397019487963316986e-01
3.366450133740924722e-01
3.366450133740924722e-01
3.366450133740924722e-01
3.312953763851738676e-01
3.312953763851738676e-01
3.366450133740924722e-01
3.366450133740924722e-01
3.366450133740924722e-01
3.324417271685135566e-01
3.324417271685135566e-01
3.354986625907527831e-01
3.354986625907527831e-01
3.354986625907527831e-01
3.404661826518914913e-01
3.404661826518914913e-01
3.290026748184944339e-01
3.290026748184944339e-01
3.290026748184944339e-01
3.351165456629728867e-01
3.351165456629728867e-01
3.358807795185326794e-01
3.358807795185326794e-01
3.358807795185326794e-01
3.370271303018723685e-01
3.370271303018723685e-01
3.339701948796331421e-01
3.339701948796331421e-01
3.377913641574321613e-01
3.377913641574321613e-01
3.377913641574321613e-01
3.320596102407336603e-01
3.320596102407336603e-01
3.416125334352311804e-01
3.416125334352311804e-01
3.416125334352311804e-01
3.400840657241115950e-01
3.400840657241115950e-01
3.469621704241497850e-01
3.469621704241497850e-01
3.469621704241497850e-01
3.309132594573939712e-01
3.309132594573939712e-01
3.328238440962934530e-01
3.328238440962934530e-01
3.328238440962934530e-01
3.309132594573939712e-01
3.309132594573939712e-01
3.370271303018723685e-01
3.370271303018723685e-01
3.370271303018723685e-01
3.389377149407718504e-01
3.389377149407718504e-01
3.416125334352311804e-01
3.416125334352311804e-01
3.416125334352311804e-01
3.351165456629728867e-01
3.351165456629728867e-01
3.343523118074130940e-01
3.343523118074130940e-01
3.343523118074130940e-01
3.339701948796331421e-01
3.339701948796331421e-01
3.297669086740542821e-01
3.297669086740542821e-01
3.297669086740542821e-01
3.366450133740924722e-01
3.366450133740924722e-01
3.366450133740924722e-01
3.366450133740924722e-01
3.366450133740924722e-01
3.324417271685135566e-01
3.324417271685135566e-01
3.374092472296522649e-01
3.374092472296522649e-01
3.374092472296522649e-01
3.324417271685135566e-01
3.324417271685135566e-01
3.320596102407336603e-01
3.320596102407336603e-01
3.320596102407336603e-01
3.320596102407336603e-01
3.320596102407336603e-01
3.354986625907527831e-01
3.354986625907527831e-01
3.354986625907527831e-01
3.320596102407336603e-01
3.320596102407336603e-01
3.381734810852120576e-01
3.381734810852120576e-01
3.381734810852120576e-01
3.305311425296140748e-01
3.305311425296140748e-01
3.393198318685518022e-01
3.393198318685518022e-01
3.393198318685518022e-01
3.385555980129919540e-01
3.385555980129919540e-01
3.362628964463125758e-01
3.362628964463125758e-01
3.362628964463125758e-01
3.263278563240351593e-01
3.263278563240351593e-01
3.381734810852120576e-01
3.381734810852120576e-01
3.381734810852120576e-01
3.377913641574321613e-01
3.377913641574321613e-01
3.328238440962934530e-01
3.328238440962934530e-01
3.328238440962934530e-01
3.263278563240351593e-01
3.263278563240351593e-01
3.320596102407336603e-01
3.320596102407336603e-01
3.320596102407336603e-01
3.316774933129537639e-01
3.316774933129537639e-01
3.213603362628964510e-01
3.213603362628964510e-01
3.213603362628964510e-01
3.228888039740160365e-01
3.228888039740160365e-01
3.198318685517768656e-01
3.198318685517768656e-01
3.198318685517768656e-01
3.171570500573175355e-01
3.171570500573175355e-01
3.320596102407336603e-01
3.320596102407336603e-01
3.320596102407336603e-01
3.236530378295758292e-01
3.236530378295758292e-01
3.270920901795949520e-01
3.270920901795949520e-01
3.270920901795949520e-01
3.205961024073366583e-01
3.205961024073366583e-01
3.228888039740160365e-01
3.228888039740160365e-01
3.228888039740160365e-01
3.114252961406190345e-01
3.114252961406190345e-01
3.129537638517386200e-01
3.129537638517386200e-01
3.129537638517386200e-01
3.091325945739396008e-01
3.091325945739396008e-01
3.079862437905999117e-01
3.079862437905999117e-01
3.079862437905999117e-01
3.175391669850974319e-01
3.175391669850974319e-01
3.121895299961788273e-01
3.121895299961788273e-01
3.121895299961788273e-01
3.053114252961406372e-01
3.053114252961406372e-01
3.091325945739396008e-01
3.091325945739396008e-01
3.091325945739396008e-01
3.141001146350783091e-01
3.141001146350783091e-01
3.014902560183416180e-01
3.014902560183416180e-01
3.014902560183416180e-01
3.003439052350019289e-01
3.003439052350019289e-01
3.041650745128008926e-01
3.041650745128008926e-01
3.041650745128008926e-01
2.934658005349636833e-01
2.934658005349636833e-01
2.869698127627053896e-01
2.869698127627053896e-01
2.869698127627053896e-01
2.927015666794038906e-01
2.927015666794038906e-01
2.900267481849446161e-01
2.900267481849446161e-01
2.900267481849446161e-01
2.904088651127245124e-01
2.904088651127245124e-01
2.915552158960642015e-01
2.915552158960642015e-01
2.915552158960642015e-01
2.877340466182651824e-01
2.877340466182651824e-01
2.781811234237676622e-01
2.781811234237676622e-01
2.781811234237676622e-01
2.839128773404661632e-01
2.839128773404661632e-01
2.812380588460068886e-01
2.812380588460068886e-01
2.812380588460068886e-01
2.743599541459686431e-01
2.743599541459686431e-01
2.800917080626671996e-01
2.800917080626671996e-01
2.800917080626671996e-01
2.670997325181505566e-01
2.670997325181505566e-01
2.651891478792510748e-01
2.651891478792510748e-01
2.651891478792510748e-01
2.648070309514711229e-01
2.648070309514711229e-01
2.606037447458922629e-01
2.606037447458922629e-01
2.606037447458922629e-01
2.640427970959113302e-01
2.640427970959113302e-01
2.693924340848299348e-01
2.693924340848299348e-01
2.693924340848299348e-01
2.728314864348490576e-01
2.728314864348490576e-01
2.602216278181123665e-01
2.602216278181123665e-01
2.602216278181123665e-01
2.537256400458540173e-01
2.537256400458540173e-01
2.602216278181123665e-01
2.602216278181123665e-01
2.602216278181123665e-01
2.609858616736721593e-01
2.609858616736721593e-01
2.544898739014138100e-01
2.544898739014138100e-01
2.453190676346962140e-01
2.453190676346962140e-01
2.453190676346962140e-01
2.495223538402751295e-01
2.495223538402751295e-01
2.468475353458158272e-01
2.468475353458158272e-01
2.468475353458158272e-01
2.602216278181123665e-01
2.602216278181123665e-01
2.529614061902942246e-01
2.529614061902942246e-01
2.529614061902942246e-01
2.606037447458922629e-01
2.606037447458922629e-01
2.525792892625143282e-01
2.525792892625143282e-01
2.525792892625143282e-01
2.445548337791364213e-01
2.445548337791364213e-01
2.487581199847153091e-01
2.487581199847153091e-01
2.487581199847153091e-01
2.472296522735957236e-01
2.472296522735957236e-01
2.544898739014138100e-01
2.544898739014138100e-01
2.544898739014138100e-01
2.441727168513565249e-01
2.441727168513565249e-01
2.380588460068780998e-01
2.380588460068780998e-01
2.380588460068780998e-01
2.464654184180359309e-01
2.464654184180359309e-01
2.346197936568590048e-01
2.346197936568590048e-01
2.346197936568590048e-01
2.357661444401986939e-01
2.357661444401986939e-01
2.518150554069545355e-01
2.518150554069545355e-01
2.518150554069545355e-01
2.346197936568590048e-01
2.346197936568590048e-01
2.338555598012991843e-01
2.338555598012991843e-01
2.338555598012991843e-01
2.376767290790982035e-01
2.376767290790982035e-01
2.411157814291172985e-01
2.411157814291172985e-01
2.411157814291172985e-01
2.495223538402751295e-01
2.495223538402751295e-01
2.361482613679785902e-01
2.361482613679785902e-01
2.361482613679785902e-01
2.403515475735575058e-01
2.403515475735575058e-01
2.342376767290791084e-01
2.342376767290791084e-01
2.342376767290791084e-01
2.330913259457393916e-01
2.330913259457393916e-01
2.441727168513565249e-01
2.441727168513565249e-01
2.441727168513565249e-01
2.357661444401986939e-01
2.357661444401986939e-01
2.338555598012991843e-01
2.338555598012991843e-01
2.338555598012991843e-01
2.292701566679404002e-01
2.292701566679404002e-01
2.372946121513183071e-01
2.372946121513183071e-01
2.372946121513183071e-01
2.327092090179594952e-01
2.327092090179594952e-01
2.319449751623997025e-01
2.319449751623997025e-01
2.319449751623997025e-01
2.361482613679785902e-01
2.361482613679785902e-01
2.262132212457011737e-01
2.262132212457011737e-01
2.262132212457011737e-01
2.330913259457393916e-01
2.330913259457393916e-01
2.281238058846006833e-01
2.281238058846006833e-01
2.281238058846006833e-01
2.277416889568207869e-01
2.277416889568207869e-01
2.346197936568590048e-01
2.346197936568590048e-01
2.346197936568590048e-01
2.262132212457011737e-01
2.262132212457011737e-01
2.365303782957585144e-01
2.365303782957585144e-01
2.365303782957585144e-01
2.220099350401222860e-01
2.220099350401222860e-01
2.323270920901795988e-01
2.323270920901795988e-01
2.323270920901795988e-01
2.204814673290026728e-01
2.204814673290026728e-01
2.334734428735192879e-01
2.334734428735192879e-01
2.334734428735192879e-01
2.197172334734428800e-01
2.197172334734428800e-01
2.235384027512418714e-01
2.235384027512418714e-01
2.235384027512418714e-01
2.262132212457011737e-01
2.262132212457011737e-01
2.269774551012609942e-01
2.269774551012609942e-01
2.269774551012609942e-01
2.162781811234237572e-01
2.162781811234237572e-01
2.197172334734428800e-01
2.197172334734428800e-01
2.197172334734428800e-01
2.170424149789835777e-01
2.170424149789835777e-01
2.273595720290408906e-01
2.273595720290408906e-01
2.273595720290408906e-01
2.178066488345433704e-01
2.178066488345433704e-01
2.155139472678639645e-01
2.155139472678639645e-01
2.155139472678639645e-01
2.200993504012227764e-01
2.200993504012227764e-01
2.189529996178830595e-01
2.189529996178830595e-01
2.189529996178830595e-01
2.155139472678639645e-01
2.155139472678639645e-01
2.185708826901031632e-01
2.185708826901031632e-01
2.185708826901031632e-01
2.097821933511654635e-01
2.097821933511654635e-01
2.097821933511654635e-01
2.097821933511654635e-01
2.097821933511654635e-01
2.128391287734046622e-01
2.128391287734046622e-01
2.143675964845242754e-01
2.143675964845242754e-01
2.143675964845242754e-01
2.151318303400840681e-01
2.151318303400840681e-01
2.090179594956056430e-01
2.090179594956056430e-01
2.090179594956056430e-01
2.170424149789835777e-01
2.170424149789835777e-01
2.086358425678257467e-01
2.086358425678257467e-01
2.086358425678257467e-01
2.097821933511654635e-01
2.097821933511654635e-01
2.094000764233855671e-01
2.094000764233855671e-01
2.094000764233855671e-01
2.032862055789071420e-01
2.032862055789071420e-01
2.051967902178066516e-01
2.051967902178066516e-01
2.051967902178066516e-01
2.105464272067252562e-01
2.105464272067252562e-01
2.009935040122277361e-01
2.009935040122277361e-01
2.009935040122277361e-01
2.032862055789071420e-01
2.032862055789071420e-01
2.155139472678639645e-01
2.155139472678639645e-01
2.155139472678639645e-01
2.063431410011463407e-01
2.063431410011463407e-01
2.048146732900267553e-01
2.048146732900267553e-01
2.048146732900267553e-01
2.009935040122277361e-01
2.009935040122277361e-01
1.971723347344287447e-01
1.971723347344287447e-01
1.971723347344287447e-01
1.979365685899885374e-01
1.979365685899885374e-01
1.979365685899885374e-01
1.979365685899885374e-01
1.979365685899885374e-01
1.929690485288498292e-01
1.929690485288498292e-01
2.006113870844478397e-01
2.006113870844478397e-01
1.987008024455483302e-01
1.987008024455483302e-01
1.987008024455483302e-01
1.937332823844096219e-01
1.937332823844096219e-01
2.055789071455865480e-01
2.055789071455865480e-01
2.055789071455865480e-01
2.040504394344669348e-01
2.040504394344669348e-01
1.998471532288880470e-01
1.998471532288880470e-01
1.998471532288880470e-01
1.994650363011081506e-01
1.994650363011081506e-01
1.964081008788689242e-01
1.964081008788689242e-01
1.964081008788689242e-01
2.021398547955674529e-01
2.021398547955674529e-01
1.979365685899885374e-01
1.979365685899885374e-01
1.979365685899885374e-01
2.048146732900267553e-01
2.048146732900267553e-01
1.994650363011081506e-01
1.994650363011081506e-01
1.994650363011081506e-01
1.998471532288880470e-01
1.998471532288880470e-01
1.956438670233091315e-01
1.956438670233091315e-01
1.956438670233091315e-01
1.975544516622086411e-01
1.975544516622086411e-01
1.990829193733282265e-01
1.990829193733282265e-01
1.990829193733282265e-01
1.895299961788307341e-01
1.895299961788307341e-01
2.013756209400076325e-01
2.013756209400076325e-01
2.013756209400076325e-01
1.933511654566297255e-01
1.933511654566297255e-01
1.902942300343905269e-01
1.902942300343905269e-01
1.902942300343905269e-01
1.944975162399694424e-01
1.944975162399694424e-01
1.994650363011081506e-01
1.994650363011081506e-01
1.994650363011081506e-01
1.891478792510508100e-01
1.891478792510508100e-01
1.922048146732900364e-01
1.922048146732900364e-01
1.922048146732900364e-01
2.017577378677875566e-01
2.017577378677875566e-01
1.998471532288880470e-01
1.998471532288880470e-01
1.998471532288880470e-01
1.834161253343523090e-01
1.834161253343523090e-01
1.975544516622086411e-01
1.975544516622086411e-01
1.975544516622086411e-01
2.013756209400076325e-01
2.013756209400076325e-01
1.899121131066106305e-01
1.899121131066106305e-01
1.899121131066106305e-01
1.975544516622086411e-01
1.975544516622086411e-01
1.895299961788307341e-01
1.895299961788307341e-01
1.895299961788307341e-01
1.826518914787925163e-01
1.826518914787925163e-01
1.933511654566297255e-01
1.933511654566297255e-01
1.933511654566297255e-01
1.910584638899503196e-01
1.910584638899503196e-01
1.941153993121895183e-01
1.941153993121895183e-01
1.941153993121895183e-01
1.918226977455101123e-01
1.918226977455101123e-01
1.815055406954527994e-01
1.815055406954527994e-01
1.815055406954527994e-01
1.860909438288116113e-01
1.860909438288116113e-01
1.822697745510126199e-01
1.822697745510126199e-01
1.822697745510126199e-01
1.780664883454337044e-01
1.780664883454337044e-01
1.853267099732518186e-01
1.853267099732518186e-01
1.853267099732518186e-01
1.899121131066106305e-01
1.899121131066106305e-01
1.891478792510508100e-01
1.891478792510508100e-01
1.891478792510508100e-01
1.883836453954910173e-01
1.883836453954910173e-01
1.948796331677493388e-01
1.948796331677493388e-01
1.948796331677493388e-01
1.960259839510890278e-01
1.960259839510890278e-01
1.853267099732518186e-01
1.853267099732518186e-01
1.853267099732518186e-01
1.799770729843332140e-01
1.799770729843332140e-01
1.818876576232326958e-01
1.818876576232326958e-01
1.818876576232326958e-01
1.826518914787925163e-01
1.826518914787925163e-01
1.807413068398930067e-01
1.807413068398930067e-01
1.807413068398930067e-01
1.948796331677493388e-01
1.948796331677493388e-01
1.803591899121131104e-01
1.803591899121131104e-01
1.803591899121131104e-01
1.788307222009934971e-01
1.788307222009934971e-01
1.845624761176920259e-01
1.845624761176920259e-01
1.845624761176920259e-01
1.853267099732518186e-01
1.853267099732518186e-01
1.807413068398930067e-01
1.807413068398930067e-01
1.807413068398930067e-01
1.849445930454719222e-01
1.849445930454719222e-01
1.853267099732518186e-01
1.853267099732518186e-01
1.853267099732518186e-01
1.822697745510126199e-01
1.822697745510126199e-01
1.815055406954527994e-01
1.815055406954527994e-01
1.815055406954527994e-01
1.899121131066106305e-01
1.899121131066106305e-01
1.795949560565533176e-01
1.795949560565533176e-01
1.795949560565533176e-01
1.841803591899121018e-01
1.841803591899121018e-01
1.822697745510126199e-01
1.822697745510126199e-01
1.822697745510126199e-01
1.818876576232326958e-01
1.818876576232326958e-01
1.891478792510508100e-01
1.891478792510508100e-01
1.891478792510508100e-01
1.837982422621322054e-01
1.837982422621322054e-01
1.811234237676729031e-01
1.811234237676729031e-01
1.811234237676729031e-01
1.742453190676346853e-01
1.742453190676346853e-01
1.761559037065341948e-01
1.761559037065341948e-01
1.761559037065341948e-01
1.834161253343523090e-01
1.834161253343523090e-01
1.891478792510508100e-01
1.891478792510508100e-01
1.891478792510508100e-01
1.815055406954527994e-01
1.815055406954527994e-01
1.837982422621322054e-01
1.837982422621322054e-01
1.837982422621322054e-01
1.807413068398930067e-01
1.807413068398930067e-01
1.860909438288116113e-01
1.860909438288116113e-01
1.860909438288116113e-01
1.730989682842949962e-01
1.730989682842949962e-01
1.788307222009934971e-01
1.788307222009934971e-01
1.788307222009934971e-01
1.730989682842949962e-01
1.730989682842949962e-01
1.753916698509744021e-01
1.753916698509744021e-01
1.776843714176538080e-01
1.776843714176538080e-01
1.776843714176538080e-01
1.818876576232326958e-01
1.818876576232326958e-01
1.895299961788307341e-01
1.895299961788307341e-01
1.895299961788307341e-01
1.880015284677111209e-01
1.880015284677111209e-01
1.811234237676729031e-01
1.811234237676729031e-01
1.811234237676729031e-01
1.868551776843714041e-01
1.868551776843714041e-01
1.773022544898739117e-01
1.773022544898739117e-01
1.773022544898739117e-01
1.681314482231562879e-01
1.681314482231562879e-01
1.788307222009934971e-01
1.788307222009934971e-01
1.788307222009934971e-01
1.818876576232326958e-01
1.818876576232326958e-01
1.757737867787542985e-01
1.757737867787542985e-01
1.757737867787542985e-01
1.864730607565915077e-01
1.864730607565915077e-01
1.803591899121131104e-01
1.803591899121131104e-01
1.803591899121131104e-01
1.761559037065341948e-01
1.761559037065341948e-01
1.799770729843332140e-01
1.799770729843332140e-01
1.799770729843332140e-01
1.887657623232709136e-01
1.887657623232709136e-01
1.750095529231945057e-01
1.750095529231945057e-01
1.750095529231945057e-01
1.753916698509744021e-01
1.753916698509744021e-01
1.765380206343140912e-01
1.765380206343140912e-01
1.765380206343140912e-01
1.727168513565150998e-01
1.727168513565150998e-01
1.746274359954146094e-01
1.746274359954146094e-01
1.746274359954146094e-01
1.769201375620939876e-01
1.769201375620939876e-01
1.730989682842949962e-01
1.730989682842949962e-01
1.730989682842949962e-01
1.807413068398930067e-01
1.807413068398930067e-01
1.773022544898739117e-01
1.773022544898739117e-01
1.773022544898739117e-01
1.765380206343140912e-01
1.765380206343140912e-01
1.784486052732136008e-01
1.784486052732136008e-01
1.784486052732136008e-01
1.887657623232709136e-01
1.887657623232709136e-01
1.784486052732136008e-01
1.784486052732136008e-01
1.784486052732136008e-01
1.776843714176538080e-01
1.776843714176538080e-01
1.792128391287733935e-01
1.792128391287733935e-01
1.792128391287733935e-01
1.734810852120748925e-01
1.734810852120748925e-01
1.727168513565150998e-01
1.727168513565150998e-01
1.727168513565150998e-01
1.803591899121131104e-01
1.803591899121131104e-01
1.803591899121131104e-01
1.803591899121131104e-01
1.803591899121131104e-01
1.818876576232326958e-01
1.818876576232326958e-01
1.807413068398930067e-01
1.807413068398930067e-01
1.807413068398930067e-01
1.784486052732136008e-01
1.784486052732136008e-01
1.845624761176920259e-01
1.845624761176920259e-01
1.845624761176920259e-01
1.757737867787542985e-01
1.757737867787542985e-01
1.807413068398930067e-01
1.807413068398930067e-01
1.807413068398930067e-01
1.860909438288116113e-01
1.860909438288116113e-01
1.849445930454719222e-01
1.849445930454719222e-01
1.849445930454719222e-01
1.769201375620939876e-01
1.769201375620939876e-01
1.776843714176538080e-01
1.776843714176538080e-01
1.776843714176538080e-01
1.776843714176538080e-01
1.776843714176538080e-01
1.742453190676346853e-01
1.742453190676346853e-01
1.742453190676346853e-01
1.780664883454337044e-01
1.780664883454337044e-01
1.773022544898739117e-01
1.773022544898739117e-01
1.773022544898739117e-01
1.822697745510126199e-01
1.822697745510126199e-01
1.837982422621322054e-01
1.837982422621322054e-01
1.837982422621322054e-01
1.734810852120748925e-01
1.734810852120748925e-01
1.834161253343523090e-01
1.834161253343523090e-01
1.834161253343523090e-01
1.807413068398930067e-01
1.807413068398930067e-01
1.860909438288116113e-01
1.860909438288116113e-01
1.860909438288116113e-01
1.792128391287733935e-01
1.792128391287733935e-01
1.860909438288116113e-01
1.860909438288116113e-01
1.860909438288116113e-01
1.807413068398930067e-01
1.807413068398930067e-01
1.776843714176538080e-01
1.776843714176538080e-01
1.776843714176538080e-01
1.773022544898739117e-01
1.773022544898739117e-01
1.841803591899121018e-01
1.841803591899121018e-01
1.841803591899121018e-01
1.792128391287733935e-01
1.792128391287733935e-01
1.784486052732136008e-01
1.784486052732136008e-01
1.784486052732136008e-01
1.818876576232326958e-01
1.818876576232326958e-01
1.780664883454337044e-01
1.780664883454337044e-01
1.780664883454337044e-01
1.891478792510508100e-01
1.891478792510508100e-01
1.761559037065341948e-01
