2.044325563622468589e-01
2.006113870844478397e-01
2.006113870844478397e-01
1.975544516622086411e-01
1.975544516622086411e-01
1.975544516622086411e-01
1.941153993121895183e-01
1.941153993121895183e-01
1.956438670233091315e-01
1.956438670233091315e-01
1.956438670233091315e-01
1.880015284677111209e-01
1.880015284677111209e-01
1.906763469621704232e-01
1.906763469621704232e-01
1.906763469621704232e-01
1.967902178066488483e-01
1.967902178066488483e-01
1.910584638899503196e-01
1.910584638899503196e-01
1.853267099732518186e-01
1.853267099732518186e-01
1.853267099732518186e-01
1.811234237676729031e-01
1.811234237676729031e-01
1.910584638899503196e-01
1.910584638899503196e-01
1.910584638899503196e-01
1.857088269010317150e-01
1.857088269010317150e-01
1.902942300343905269e-01
1.902942300343905269e-01
1.902942300343905269e-01
1.960259839510890278e-01
1.960259839510890278e-01
1.822697745510126199e-01
1.822697745510126199e-01
1.822697745510126199e-01
1.776843714176538080e-01
1.776843714176538080e-01
1.761559037065341948e-01
1.761559037065341948e-01
1.761559037065341948e-01
1.803591899121131104e-01
1.803591899121131104e-01
1.872372946121513282e-01
1.872372946121513282e-01
1.872372946121513282e-01
1.872372946121513282e-01
1.872372946121513282e-01
1.902942300343905269e-01
1.902942300343905269e-01
1.902942300343905269e-01
1.715705005731753829e-01
1.715705005731753829e-01
1.711883836453954866e-01
1.711883836453954866e-01
1.711883836453954866e-01
1.883836453954910173e-01
1.883836453954910173e-01
1.906763469621704232e-01
1.906763469621704232e-01
1.906763469621704232e-01
1.899121131066106305e-01
1.899121131066106305e-01
1.742453190676346853e-01
1.742453190676346853e-01
1.742453190676346853e-01
1.864730607565915077e-01
1.864730607565915077e-01
1.788307222009934971e-01
1.788307222009934971e-01
1.788307222009934971e-01
1.696599159342759011e-01
1.696599159342759011e-01
1.815055406954527994e-01
1.815055406954527994e-01
1.815055406954527994e-01
1.757737867787542985e-01
1.757737867787542985e-01
1.780664883454337044e-01
1.780664883454337044e-01
1.780664883454337044e-01
1.799770729843332140e-01
1.799770729843332140e-01
1.784486052732136008e-01
1.784486052732136008e-01
1.784486052732136008e-01
1.811234237676729031e-01
1.811234237676729031e-01
1.673672143675964952e-01
1.673672143675964952e-01
1.673672143675964952e-01
1.696599159342759011e-01
1.696599159342759011e-01
1.666029805120366747e-01
1.666029805120366747e-01
1.666029805120366747e-01
1.715705005731753829e-01
1.715705005731753829e-01
1.818876576232326958e-01
1.818876576232326958e-01
1.818876576232326958e-01
1.700420328620557975e-01
1.700420328620557975e-01
1.734810852120748925e-01
1.734810852120748925e-01
1.734810852120748925e-01
1.715705005731753829e-01
1.715705005731753829e-01
1.750095529231945057e-01
1.750095529231945057e-01
1.750095529231945057e-01
1.719526175009552793e-01
1.719526175009552793e-01
1.608712265953381737e-01
1.608712265953381737e-01
1.608712265953381737e-01
1.704241497898356938e-01
1.704241497898356938e-01
1.688956820787160806e-01
1.688956820787160806e-01
1.688956820787160806e-01
1.773022544898739117e-01
1.773022544898739117e-01
1.711883836453954866e-01
1.711883836453954866e-01
1.711883836453954866e-01
1.730989682842949962e-01
1.730989682842949962e-01
1.692777990064959770e-01
1.692777990064959770e-01
1.692777990064959770e-01
1.742453190676346853e-01
1.742453190676346853e-01
1.761559037065341948e-01
1.761559037065341948e-01
1.761559037065341948e-01
1.639281620175773724e-01
1.639281620175773724e-01
1.799770729843332140e-01
1.799770729843332140e-01
1.799770729843332140e-01
1.719526175009552793e-01
1.719526175009552793e-01
1.719526175009552793e-01
1.719526175009552793e-01
1.719526175009552793e-01
1.681314482231562879e-01
1.681314482231562879e-01
1.727168513565150998e-01
1.727168513565150998e-01
1.727168513565150998e-01
1.631639281620175796e-01
1.631639281620175796e-01
1.750095529231945057e-01
1.750095529231945057e-01
1.750095529231945057e-01
1.704241497898356938e-01
1.704241497898356938e-01
1.654566297286969856e-01
1.654566297286969856e-01
1.654566297286969856e-01
1.623996943064577869e-01
1.623996943064577869e-01
1.681314482231562879e-01
1.681314482231562879e-01
1.681314482231562879e-01
1.692777990064959770e-01
1.692777990064959770e-01
1.677493312953763915e-01
1.677493312953763915e-01
1.677493312953763915e-01
1.662208635842567783e-01
1.662208635842567783e-01
1.750095529231945057e-01
1.750095529231945057e-01
1.750095529231945057e-01
1.562858234619793618e-01
1.562858234619793618e-01
1.612533435231180701e-01
1.612533435231180701e-01
1.612533435231180701e-01
1.723347344287352034e-01
1.723347344287352034e-01
1.688956820787160806e-01
1.688956820787160806e-01
1.688956820787160806e-01
1.681314482231562879e-01
1.681314482231562879e-01
1.623996943064577869e-01
1.623996943064577869e-01
1.623996943064577869e-01
1.532288880397401631e-01
1.532288880397401631e-01
1.608712265953381737e-01
1.608712265953381737e-01
1.608712265953381737e-01
1.730989682842949962e-01
1.730989682842949962e-01
1.581964081008788714e-01
1.581964081008788714e-01
1.581964081008788714e-01
1.666029805120366747e-01
1.666029805120366747e-01
1.578142911730989750e-01
1.578142911730989750e-01
1.578142911730989750e-01
1.562858234619793618e-01
1.562858234619793618e-01
1.547573557508597764e-01
1.547573557508597764e-01
1.547573557508597764e-01
1.574321742453190787e-01
1.574321742453190787e-01
1.532288880397401631e-01
1.532288880397401631e-01
1.532288880397401631e-01
1.570500573175391545e-01
1.570500573175391545e-01
1.524646541841803704e-01
1.524646541841803704e-01
1.524646541841803704e-01
1.581964081008788714e-01
1.581964081008788714e-01
1.555215896064195691e-01
1.555215896064195691e-01
1.585785250286587678e-01
1.585785250286587678e-01
1.585785250286587678e-01
1.612533435231180701e-01
1.612533435231180701e-01
1.543752388230798522e-01
1.543752388230798522e-01
1.543752388230798522e-01
1.494077187619411440e-01
1.494077187619411440e-01
1.490256018341612476e-01
1.490256018341612476e-01
1.490256018341612476e-01
1.532288880397401631e-01
1.532288880397401631e-01
1.654566297286969856e-01
1.654566297286969856e-01
1.654566297286969856e-01
1.620175773786778628e-01
1.620175773786778628e-01
1.494077187619411440e-01
1.494077187619411440e-01
1.494077187619411440e-01
1.539931218952999559e-01
1.539931218952999559e-01
1.597248758119984846e-01
1.597248758119984846e-01
1.597248758119984846e-01
1.520825372564004463e-01
1.520825372564004463e-01
1.562858234619793618e-01
1.562858234619793618e-01
1.562858234619793618e-01
1.536110049675200595e-01
1.536110049675200595e-01
1.486434849063813513e-01
1.486434849063813513e-01
1.486434849063813513e-01
1.486434849063813513e-01
1.486434849063813513e-01
1.620175773786778628e-01
1.620175773786778628e-01
1.620175773786778628e-01
1.513183034008406536e-01
1.513183034008406536e-01
1.635460450897974760e-01
1.635460450897974760e-01
1.635460450897974760e-01
1.532288880397401631e-01
1.532288880397401631e-01
1.501719526175009645e-01
1.501719526175009645e-01
1.501719526175009645e-01
1.509361864730607572e-01
1.509361864730607572e-01
1.536110049675200595e-01
1.536110049675200595e-01
1.536110049675200595e-01
1.486434849063813513e-01
1.486434849063813513e-01
1.646923958731371929e-01
1.646923958731371929e-01
1.646923958731371929e-01
1.486434849063813513e-01
1.486434849063813513e-01
1.658387466564768820e-01
1.658387466564768820e-01
1.658387466564768820e-01
1.517004203286205499e-01
1.517004203286205499e-01
1.494077187619411440e-01
1.494077187619411440e-01
1.494077187619411440e-01
1.635460450897974760e-01
1.635460450897974760e-01
1.505540695452808608e-01
1.505540695452808608e-01
1.505540695452808608e-01
1.559037065341994654e-01
1.559037065341994654e-01
1.467329002674818417e-01
1.467329002674818417e-01
1.467329002674818417e-01
1.696599159342759011e-01
1.696599159342759011e-01
1.536110049675200595e-01
1.536110049675200595e-01
1.536110049675200595e-01
1.681314482231562879e-01
1.681314482231562879e-01
1.612533435231180701e-01
1.612533435231180701e-01
1.612533435231180701e-01
1.547573557508597764e-01
1.547573557508597764e-01
1.681314482231562879e-01
1.681314482231562879e-01
1.681314482231562879e-01
1.478792510508215585e-01
1.478792510508215585e-01
1.631639281620175796e-01
1.631639281620175796e-01
1.631639281620175796e-01
1.532288880397401631e-01
1.532288880397401631e-01
1.513183034008406536e-01
1.513183034008406536e-01
1.513183034008406536e-01
1.520825372564004463e-01
1.520825372564004463e-01
1.612533435231180701e-01
1.612533435231180701e-01
1.612533435231180701e-01
1.501719526175009645e-01
1.501719526175009645e-01
1.562858234619793618e-01
1.562858234619793618e-01
1.562858234619793618e-01
1.639281620175773724e-01
1.639281620175773724e-01
1.494077187619411440e-01
1.494077187619411440e-01
1.494077187619411440e-01
1.566679403897592582e-01
1.566679403897592582e-01
1.524646541841803704e-01
1.524646541841803704e-01
1.524646541841803704e-01
1.623996943064577869e-01
1.623996943064577869e-01
1.494077187619411440e-01
1.494077187619411440e-01
1.494077187619411440e-01
1.532288880397401631e-01
1.532288880397401631e-01
1.643102789453572687e-01
1.643102789453572687e-01
1.643102789453572687e-01
1.574321742453190787e-01
1.574321742453190787e-01
1.536110049675200595e-01
1.536110049675200595e-01
1.536110049675200595e-01
1.536110049675200595e-01
1.536110049675200595e-01
1.669850974398165711e-01
1.669850974398165711e-01
1.669850974398165711e-01
1.482613679786014549e-01
1.482613679786014549e-01
1.543752388230798522e-01
1.543752388230798522e-01
1.543752388230798522e-01
1.620175773786778628e-01
1.620175773786778628e-01
1.627818112342376833e-01
1.627818112342376833e-01
1.627818112342376833e-01
1.524646541841803704e-01
1.524646541841803704e-01
1.539931218952999559e-01
1.539931218952999559e-01
1.539931218952999559e-01
1.547573557508597764e-01
1.547573557508597764e-01
1.601069927397783810e-01
1.601069927397783810e-01
1.601069927397783810e-01
1.509361864730607572e-01
1.509361864730607572e-01
1.528467711119602668e-01
1.528467711119602668e-01
1.528467711119602668e-01
1.715705005731753829e-01
1.715705005731753829e-01
1.612533435231180701e-01
1.612533435231180701e-01
1.612533435231180701e-01
1.490256018341612476e-01
1.490256018341612476e-01
1.681314482231562879e-01
1.681314482231562879e-01
1.681314482231562879e-01
1.482613679786014549e-01
1.482613679786014549e-01
1.650745128009170892e-01
1.650745128009170892e-01
1.650745128009170892e-01
1.704241497898356938e-01
1.704241497898356938e-01
1.474971341230416622e-01
1.474971341230416622e-01
1.474971341230416622e-01
1.562858234619793618e-01
1.562858234619793618e-01
1.543752388230798522e-01
1.543752388230798522e-01
1.543752388230798522e-01
1.666029805120366747e-01
1.666029805120366747e-01
1.513183034008406536e-01
1.513183034008406536e-01
1.578142911730989750e-01
1.578142911730989750e-01
1.578142911730989750e-01
1.608712265953381737e-01
1.608712265953381737e-01
1.517004203286205499e-01
1.517004203286205499e-01
1.517004203286205499e-01
1.520825372564004463e-01
1.520825372564004463e-01
1.673672143675964952e-01
1.673672143675964952e-01
1.673672143675964952e-01
1.723347344287352034e-01
1.723347344287352034e-01
1.536110049675200595e-01
1.536110049675200595e-01
1.536110049675200595e-01
1.654566297286969856e-01
1.654566297286969856e-01
1.536110049675200595e-01
1.536110049675200595e-01
1.536110049675200595e-01
1.593427588842185605e-01
1.593427588842185605e-01
1.650745128009170892e-01
1.650745128009170892e-01
1.650745128009170892e-01
1.715705005731753829e-01
1.715705005731753829e-01
1.585785250286587678e-01
1.585785250286587678e-01
1.585785250286587678e-01
1.524646541841803704e-01
1.524646541841803704e-01
1.669850974398165711e-01
1.669850974398165711e-01
1.669850974398165711e-01
1.501719526175009645e-01
1.501719526175009645e-01
1.543752388230798522e-01
1.543752388230798522e-01
1.543752388230798522e-01
1.666029805120366747e-01
1.666029805120366747e-01
1.505540695452808608e-01
1.505540695452808608e-01
1.505540695452808608e-01
1.474971341230416622e-01
1.474971341230416622e-01
1.612533435231180701e-01
1.612533435231180701e-01
1.612533435231180701e-01
1.673672143675964952e-01
1.673672143675964952e-01
1.616354604508979664e-01
1.616354604508979664e-01
1.616354604508979664e-01
1.643102789453572687e-01
1.643102789453572687e-01
1.497898356897210681e-01
1.497898356897210681e-01
1.497898356897210681e-01
1.631639281620175796e-01
1.631639281620175796e-01
1.727168513565150998e-01
1.727168513565150998e-01
1.727168513565150998e-01
1.497898356897210681e-01
1.497898356897210681e-01
1.631639281620175796e-01
1.631639281620175796e-01
1.631639281620175796e-01
1.623996943064577869e-01
1.623996943064577869e-01
1.524646541841803704e-01
1.524646541841803704e-01
1.524646541841803704e-01
1.685135651509361843e-01
1.685135651509361843e-01
1.555215896064195691e-01
1.555215896064195691e-01
1.555215896064195691e-01
1.589606419564386641e-01
1.589606419564386641e-01
1.497898356897210681e-01
1.497898356897210681e-01
1.497898356897210681e-01
1.597248758119984846e-01
1.597248758119984846e-01
1.669850974398165711e-01
1.669850974398165711e-01
1.669850974398165711e-01
1.517004203286205499e-01
1.517004203286205499e-01
1.585785250286587678e-01
1.585785250286587678e-01
1.585785250286587678e-01
1.574321742453190787e-01
1.574321742453190787e-01
1.494077187619411440e-01
1.494077187619411440e-01
1.494077187619411440e-01
1.646923958731371929e-01
1.646923958731371929e-01
1.543752388230798522e-01
1.543752388230798522e-01
1.543752388230798522e-01
1.704241497898356938e-01
1.704241497898356938e-01
1.654566297286969856e-01
1.654566297286969856e-01
1.654566297286969856e-01
1.631639281620175796e-01
1.631639281620175796e-01
1.486434849063813513e-01
1.486434849063813513e-01
1.486434849063813513e-01
1.551394726786396727e-01
1.551394726786396727e-01
1.494077187619411440e-01
1.494077187619411440e-01
1.494077187619411440e-01
1.501719526175009645e-01
1.501719526175009645e-01
1.627818112342376833e-01
1.627818112342376833e-01
1.627818112342376833e-01
1.509361864730607572e-01
1.509361864730607572e-01
1.631639281620175796e-01
1.631639281620175796e-01
1.631639281620175796e-01
1.604891096675582773e-01
1.604891096675582773e-01
1.581964081008788714e-01
1.581964081008788714e-01
1.581964081008788714e-01
1.681314482231562879e-01
1.681314482231562879e-01
1.654566297286969856e-01
1.654566297286969856e-01
1.654566297286969856e-01
1.730989682842949962e-01
1.730989682842949962e-01
1.730989682842949962e-01
1.730989682842949962e-01
1.730989682842949962e-01
1.685135651509361843e-01
1.685135651509361843e-01
1.757737867787542985e-01
1.757737867787542985e-01
1.757737867787542985e-01
1.730989682842949962e-01
1.730989682842949962e-01
1.776843714176538080e-01
1.776843714176538080e-01
1.776843714176538080e-01
1.853267099732518186e-01
1.853267099732518186e-01
1.849445930454719222e-01
1.849445930454719222e-01
1.849445930454719222e-01
2.002292701566679434e-01
2.002292701566679434e-01
1.983186855177684338e-01
1.983186855177684338e-01
1.983186855177684338e-01
2.044325563622468589e-01
2.044325563622468589e-01
2.101643102789453599e-01
2.101643102789453599e-01
2.101643102789453599e-01
2.296522735957202965e-01
2.296522735957202965e-01
2.262132212457011737e-01
2.262132212457011737e-01
2.262132212457011737e-01
2.380588460068780998e-01
2.380588460068780998e-01
2.388230798624378926e-01
2.388230798624378926e-01
2.388230798624378926e-01
2.449369507069163177e-01
2.449369507069163177e-01
2.575468093236530365e-01
2.575468093236530365e-01
2.575468093236530365e-01
2.693924340848299348e-01
2.693924340848299348e-01
2.785632403515475586e-01
2.785632403515475586e-01
2.785632403515475586e-01
2.858234619793657005e-01
2.858234619793657005e-01
3.079862437905999117e-01
3.079862437905999117e-01
3.079862437905999117e-01
3.072220099350401190e-01
3.072220099350401190e-01
3.133358807795185164e-01
3.133358807795185164e-01
3.152464654184180537e-01
3.152464654184180537e-01
3.152464654184180537e-01
3.251815055406954702e-01
3.251815055406954702e-01
3.450515857852503032e-01
3.450515857852503032e-01
3.450515857852503032e-01
3.530760412686281824e-01
3.530760412686281824e-01
3.523118074130683897e-01
3.523118074130683897e-01
3.523118074130683897e-01
3.572793274742070979e-01
3.572793274742070979e-01
3.549866259075277197e-01
3.549866259075277197e-01
3.549866259075277197e-01
3.821169277799006392e-01
3.821169277799006392e-01
3.748567061520825527e-01
3.748567061520825527e-01
3.748567061520825527e-01
3.767672907909820346e-01
3.767672907909820346e-01
3.782957585021016200e-01
3.782957585021016200e-01
3.782957585021016200e-01
3.897592663354986775e-01
3.897592663354986775e-01
4.004585403133358867e-01
4.004585403133358867e-01
4.004585403133358867e-01
3.974016048910966603e-01
3.974016048910966603e-01
3.985479556744364049e-01
3.985479556744364049e-01
3.985479556744364049e-01
4.092472296522736142e-01
4.092472296522736142e-01
3.996943064577760940e-01
3.996943064577760940e-01
3.996943064577760940e-01
3.989300726022163013e-01
3.989300726022163013e-01
3.989300726022163013e-01
3.989300726022163013e-01
3.989300726022163013e-01
4.092472296522736142e-01
4.092472296522736142e-01
4.145968666411922188e-01
4.145968666411922188e-01
4.145968666411922188e-01
4.264424914023691171e-01
4.264424914023691171e-01
4.084829957967138214e-01
4.084829957967138214e-01
4.084829957967138214e-01
4.203286205578907198e-01
4.203286205578907198e-01
4.188001528467711343e-01
4.188001528467711343e-01
4.188001528467711343e-01
4.275888421857088062e-01
4.275888421857088062e-01
4.157432174245319079e-01
4.157432174245319079e-01
4.157432174245319079e-01
4.157432174245319079e-01
4.157432174245319079e-01
4.252961406190294280e-01
4.252961406190294280e-01
4.252961406190294280e-01
4.294994268246083435e-01
4.294994268246083435e-01
4.184180359189912379e-01
4.184180359189912379e-01
4.184180359189912379e-01
4.314100114635078254e-01
4.314100114635078254e-01
4.222392051967902016e-01
4.222392051967902016e-01
4.222392051967902016e-01
4.268246083301490135e-01
4.268246083301490135e-01
4.214749713412304089e-01
4.214749713412304089e-01
4.214749713412304089e-01
4.226213221245700979e-01
4.226213221245700979e-01
4.161253343523118042e-01
4.161253343523118042e-01
4.161253343523118042e-01
4.199465036301108234e-01
4.199465036301108234e-01
4.245319067634696353e-01
4.245319067634696353e-01
4.245319067634696353e-01
4.233855559801299462e-01
4.233855559801299462e-01
4.256782575468093244e-01
4.256782575468093244e-01
4.256782575468093244e-01
4.142147497134123224e-01
4.142147497134123224e-01
4.237676729079098426e-01
4.237676729079098426e-01
4.237676729079098426e-01
4.184180359189912379e-01
4.184180359189912379e-01
4.180359189912112861e-01
4.180359189912112861e-01
4.180359189912112861e-01
4.337027130301872591e-01
4.337027130301872591e-01
4.237676729079098426e-01
4.237676729079098426e-01
4.237676729079098426e-01
4.249140236912495316e-01
4.249140236912495316e-01
4.268246083301490135e-01
4.268246083301490135e-01
4.268246083301490135e-01
4.199465036301108234e-01
4.199465036301108234e-01
4.340848299579671554e-01
4.340848299579671554e-01
4.340848299579671554e-01
4.264424914023691171e-01
4.264424914023691171e-01
4.264424914023691171e-01
4.264424914023691171e-01
4.264424914023691171e-01
4.111578142911730960e-01
4.111578142911730960e-01
4.237676729079098426e-01
4.237676729079098426e-01
4.237676729079098426e-01
4.233855559801299462e-01
4.233855559801299462e-01
4.283530760412686544e-01
4.283530760412686544e-01
4.283530760412686544e-01
4.222392051967902016e-01
4.222392051967902016e-01
4.279709591134887026e-01
4.279709591134887026e-01
4.279709591134887026e-01
4.294994268246083435e-01
4.294994268246083435e-01
4.233855559801299462e-01
4.233855559801299462e-01
4.233855559801299462e-01
4.168895682078715970e-01
4.168895682078715970e-01
4.165074512800917006e-01
4.165074512800917006e-01
4.165074512800917006e-01
4.298815437523882399e-01
4.298815437523882399e-01
4.153611004967520115e-01
4.153611004967520115e-01
4.153611004967520115e-01
4.126862820022926814e-01
4.126862820022926814e-01
4.207107374856706161e-01
4.207107374856706161e-01
4.207107374856706161e-01
4.142147497134123224e-01
4.142147497134123224e-01
4.195643867023309270e-01
4.195643867023309270e-01
4.195643867023309270e-01
4.249140236912495316e-01
4.249140236912495316e-01
4.119220481467328887e-01
4.119220481467328887e-01
4.119220481467328887e-01
4.172716851356514933e-01
4.172716851356514933e-01
4.077187619411539732e-01
4.077187619411539732e-01
4.077187619411539732e-01
4.149789835689721151e-01
4.149789835689721151e-01
3.951089033244172821e-01
3.951089033244172821e-01
3.951089033244172821e-01
4.038975926633550095e-01
4.038975926633550095e-01
4.038975926633550095e-01
4.038975926633550095e-01
4.038975926633550095e-01
4.081008788689338695e-01
4.081008788689338695e-01
3.981658387466564530e-01
3.981658387466564530e-01
3.981658387466564530e-01
4.054260603744745950e-01
4.054260603744745950e-01
3.977837218188765567e-01
3.977837218188765567e-01
3.977837218188765567e-01
3.901413832632785739e-01
3.901413832632785739e-01
3.882307986243790365e-01
3.882307986243790365e-01
3.824990447076805355e-01
3.824990447076805355e-01
3.824990447076805355e-01
3.798242262132212610e-01
3.798242262132212610e-01
3.901413832632785739e-01
3.901413832632785739e-01
3.901413832632785739e-01
3.870844478410393474e-01
3.870844478410393474e-01
3.775315246465418273e-01
3.775315246465418273e-01
3.775315246465418273e-01
3.767672907909820346e-01
3.767672907909820346e-01
3.744745892243026564e-01
3.744745892243026564e-01
3.744745892243026564e-01
3.568972105464272015e-01
3.568972105464272015e-01
3.626289644631257025e-01
3.626289644631257025e-01
3.626289644631257025e-01
3.660680168131448253e-01
3.660680168131448253e-01
3.599541459686664280e-01
3.599541459686664280e-01
3.599541459686664280e-01
3.442873519296905105e-01
3.442873519296905105e-01
3.366450133740924722e-01
3.366450133740924722e-01
3.366450133740924722e-01
3.358807795185326794e-01
3.358807795185326794e-01
3.305311425296140748e-01
3.305311425296140748e-01
3.305311425296140748e-01
3.274742071073748484e-01
3.274742071073748484e-01
3.225066870462361401e-01
3.225066870462361401e-01
3.225066870462361401e-01
3.194497516239969692e-01
3.194497516239969692e-01
3.293847917462743857e-01
3.293847917462743857e-01
3.293847917462743857e-01
3.232709209017959329e-01
3.232709209017959329e-01
3.076041268628200154e-01
3.076041268628200154e-01
3.076041268628200154e-01
3.037829575850209962e-01
3.037829575850209962e-01
3.121895299961788273e-01
3.121895299961788273e-01
3.121895299961788273e-01
3.076041268628200154e-01
3.076041268628200154e-01
2.923194497516239942e-01
2.923194497516239942e-01
2.923194497516239942e-01
3.014902560183416180e-01
3.014902560183416180e-01
2.846771111960260114e-01
2.846771111960260114e-01
2.846771111960260114e-01
2.988154375238822880e-01
2.988154375238822880e-01
2.842949942682460596e-01
2.842949942682460596e-01
2.842949942682460596e-01
2.850592281238059078e-01
2.850592281238059078e-01
2.969048528849828061e-01
2.969048528849828061e-01
2.969048528849828061e-01
2.839128773404661632e-01
2.839128773404661632e-01
2.816201757737867850e-01
2.816201757737867850e-01
2.816201757737867850e-01
2.785632403515475586e-01
2.785632403515475586e-01
2.827665265571264741e-01
2.827665265571264741e-01
2.827665265571264741e-01
2.927015666794038906e-01
2.927015666794038906e-01
2.930836836071837870e-01
2.930836836071837870e-01
2.930836836071837870e-01
2.858234619793657005e-01
2.858234619793657005e-01
2.777990064959877659e-01
2.777990064959877659e-01
2.777990064959877659e-01
2.896446312571647197e-01
2.896446312571647197e-01
2.793274742071073513e-01
2.793274742071073513e-01
2.793274742071073513e-01
2.816201757737867850e-01
2.816201757737867850e-01
2.911730989682843052e-01
2.911730989682843052e-01
2.911730989682843052e-01
2.858234619793657005e-01
2.858234619793657005e-01
2.831486434849063705e-01
2.831486434849063705e-01
2.831486434849063705e-01
2.827665265571264741e-01
2.827665265571264741e-01
2.812380588460068886e-01
2.812380588460068886e-01
2.812380588460068886e-01
2.743599541459686431e-01
2.743599541459686431e-01
2.911730989682843052e-01
2.911730989682843052e-01
2.911730989682843052e-01
2.728314864348490576e-01
2.728314864348490576e-01
2.839128773404661632e-01
2.839128773404661632e-01
2.839128773404661632e-01
2.888803974016048715e-01
2.888803974016048715e-01
2.877340466182651824e-01
2.877340466182651824e-01
2.877340466182651824e-01
2.701566679403897830e-01
2.701566679403897830e-01
2.846771111960260114e-01
2.846771111960260114e-01
2.846771111960260114e-01
2.716851356515093685e-01
2.716851356515093685e-01
2.728314864348490576e-01
2.728314864348490576e-01
2.728314864348490576e-01
2.839128773404661632e-01
2.839128773404661632e-01
2.827665265571264741e-01
2.827665265571264741e-01
2.827665265571264741e-01
2.739778372181887467e-01
2.739778372181887467e-01
2.709209017959495758e-01
2.709209017959495758e-01
2.709209017959495758e-01
2.728314864348490576e-01
2.728314864348490576e-01
2.655712648070309712e-01
2.655712648070309712e-01
2.655712648070309712e-01
2.739778372181887467e-01
2.739778372181887467e-01
2.648070309514711229e-01
2.648070309514711229e-01
2.648070309514711229e-01
2.579289262514329328e-01
2.579289262514329328e-01
2.747420710737485394e-01
2.747420710737485394e-01
2.747420710737485394e-01
2.640427970959113302e-01
2.640427970959113302e-01
2.579289262514329328e-01
2.579289262514329328e-01
2.579289262514329328e-01
2.648070309514711229e-01
2.648070309514711229e-01
2.556362246847535546e-01
2.556362246847535546e-01
2.556362246847535546e-01
2.495223538402751295e-01
2.495223538402751295e-01
2.625143293847917447e-01
2.625143293847917447e-01
2.625143293847917447e-01
2.525792892625143282e-01
2.525792892625143282e-01
2.625143293847917447e-01
2.625143293847917447e-01
2.625143293847917447e-01
2.487581199847153091e-01
2.487581199847153091e-01
2.560183416125334510e-01
2.560183416125334510e-01
2.560183416125334510e-01
2.518150554069545355e-01
2.518150554069545355e-01
2.453190676346962140e-01
2.453190676346962140e-01
2.453190676346962140e-01
2.430263660680168081e-01
2.430263660680168081e-01
2.365303782957585144e-01
2.365303782957585144e-01
2.464654184180359309e-01
2.464654184180359309e-01
2.464654184180359309e-01
2.495223538402751295e-01
2.495223538402751295e-01
2.434084829957967044e-01
2.434084829957967044e-01
2.434084829957967044e-01
2.315628582346198061e-01
2.315628582346198061e-01
2.323270920901795988e-01
2.323270920901795988e-01
2.323270920901795988e-01
2.323270920901795988e-01
2.323270920901795988e-01
2.330913259457393916e-01
2.330913259457393916e-01
2.330913259457393916e-01
2.407336645013374021e-01
2.407336645013374021e-01
2.369124952235384107e-01
2.369124952235384107e-01
2.369124952235384107e-01
2.231562858234619751e-01
2.231562858234619751e-01
2.197172334734428800e-01
2.197172334734428800e-01
2.197172334734428800e-01
2.311807413068398820e-01
2.311807413068398820e-01
2.361482613679785902e-01
2.361482613679785902e-01
2.361482613679785902e-01
2.296522735957202965e-01
2.296522735957202965e-01
2.220099350401222860e-01
2.220099350401222860e-01
2.220099350401222860e-01
2.254489873901413810e-01
2.254489873901413810e-01
2.281238058846006833e-01
2.281238058846006833e-01
2.281238058846006833e-01
2.174245319067634741e-01
2.174245319067634741e-01
2.124570118456247658e-01
2.124570118456247658e-01
2.124570118456247658e-01
2.086358425678257467e-01
2.086358425678257467e-01
2.235384027512418714e-01
2.235384027512418714e-01
2.235384027512418714e-01
2.132212457011845586e-01
2.132212457011845586e-01
2.059610240733664444e-01
2.059610240733664444e-01
2.059610240733664444e-01
2.082537256400458503e-01
2.082537256400458503e-01
2.044325563622468589e-01
2.044325563622468589e-01
2.044325563622468589e-01
2.136033626289644549e-01
2.136033626289644549e-01
2.071073748567061612e-01
2.071073748567061612e-01
2.071073748567061612e-01
2.139854795567443513e-01
2.139854795567443513e-01
2.021398547955674529e-01
2.021398547955674529e-01
2.021398547955674529e-01
2.063431410011463407e-01
2.063431410011463407e-01
2.116927779900649731e-01
2.116927779900649731e-01
2.116927779900649731e-01
1.948796331677493388e-01
1.948796331677493388e-01
1.956438670233091315e-01
1.956438670233091315e-01
1.956438670233091315e-01
2.006113870844478397e-01
2.006113870844478397e-01
1.956438670233091315e-01
1.956438670233091315e-01
1.956438670233091315e-01
2.059610240733664444e-01
2.059610240733664444e-01
2.013756209400076325e-01
2.013756209400076325e-01
2.013756209400076325e-01
1.944975162399694424e-01
1.944975162399694424e-01
1.983186855177684338e-01
1.983186855177684338e-01
1.983186855177684338e-01
1.933511654566297255e-01
1.933511654566297255e-01
1.975544516622086411e-01
1.975544516622086411e-01
1.975544516622086411e-01
1.948796331677493388e-01
1.948796331677493388e-01
1.910584638899503196e-01
1.910584638899503196e-01
1.910584638899503196e-01
2.059610240733664444e-01
2.059610240733664444e-01
1.918226977455101123e-01
1.918226977455101123e-01
1.918226977455101123e-01
2.059610240733664444e-01
2.059610240733664444e-01
2.013756209400076325e-01
2.013756209400076325e-01
2.013756209400076325e-01
1.899121131066106305e-01
1.899121131066106305e-01
1.948796331677493388e-01
1.948796331677493388e-01
1.948796331677493388e-01
1.902942300343905269e-01
1.902942300343905269e-01
1.883836453954910173e-01
1.883836453954910173e-01
1.883836453954910173e-01
1.807413068398930067e-01
1.807413068398930067e-01
1.914405808177302160e-01
1.914405808177302160e-01
1.914405808177302160e-01
1.983186855177684338e-01
1.983186855177684338e-01
1.757737867787542985e-01
1.757737867787542985e-01
1.757737867787542985e-01
1.937332823844096219e-01
1.937332823844096219e-01
1.795949560565533176e-01
1.795949560565533176e-01
1.795949560565533176e-01
1.990829193733282265e-01
1.990829193733282265e-01
1.983186855177684338e-01
1.983186855177684338e-01
1.983186855177684338e-01
1.902942300343905269e-01
1.902942300343905269e-01
1.868551776843714041e-01
1.868551776843714041e-01
1.868551776843714041e-01
1.799770729843332140e-01
1.799770729843332140e-01
1.837982422621322054e-01
1.837982422621322054e-01
1.837982422621322054e-01
1.925869316010699328e-01
1.925869316010699328e-01
1.910584638899503196e-01
1.910584638899503196e-01
1.910584638899503196e-01
1.880015284677111209e-01
1.880015284677111209e-01
1.899121131066106305e-01
1.899121131066106305e-01
1.899121131066106305e-01
1.750095529231945057e-01
1.750095529231945057e-01
1.780664883454337044e-01
1.780664883454337044e-01
1.780664883454337044e-01
1.860909438288116113e-01
1.860909438288116113e-01
1.815055406954527994e-01
1.815055406954527994e-01
1.815055406954527994e-01
1.876194115399312246e-01
1.876194115399312246e-01
1.746274359954146094e-01
1.746274359954146094e-01
1.746274359954146094e-01
1.730989682842949962e-01
1.730989682842949962e-01
1.700420328620557975e-01
1.700420328620557975e-01
1.700420328620557975e-01
1.769201375620939876e-01
1.769201375620939876e-01
1.895299961788307341e-01
1.895299961788307341e-01
1.895299961788307341e-01
1.792128391287733935e-01
1.792128391287733935e-01
1.708062667176155902e-01
1.708062667176155902e-01
1.708062667176155902e-01
1.788307222009934971e-01
1.788307222009934971e-01
1.688956820787160806e-01
1.688956820787160806e-01
1.688956820787160806e-01
1.723347344287352034e-01
1.723347344287352034e-01
1.788307222009934971e-01
1.788307222009934971e-01
1.895299961788307341e-01
1.895299961788307341e-01
1.895299961788307341e-01
1.769201375620939876e-01
1.769201375620939876e-01
1.830340084065724127e-01
1.830340084065724127e-01
1.830340084065724127e-01
1.822697745510126199e-01
1.822697745510126199e-01
1.769201375620939876e-01
1.769201375620939876e-01
1.769201375620939876e-01
1.708062667176155902e-01
1.708062667176155902e-01
1.727168513565150998e-01
1.727168513565150998e-01
1.727168513565150998e-01
1.822697745510126199e-01
1.822697745510126199e-01
1.761559037065341948e-01
1.761559037065341948e-01
1.761559037065341948e-01
1.815055406954527994e-01
1.815055406954527994e-01
1.795949560565533176e-01
1.795949560565533176e-01
1.795949560565533176e-01
1.696599159342759011e-01
1.696599159342759011e-01
1.639281620175773724e-01
1.639281620175773724e-01
1.639281620175773724e-01
1.765380206343140912e-01
1.765380206343140912e-01
1.646923958731371929e-01
1.646923958731371929e-01
1.646923958731371929e-01
1.795949560565533176e-01
1.795949560565533176e-01
1.807413068398930067e-01
1.807413068398930067e-01
1.807413068398930067e-01
1.788307222009934971e-01
1.788307222009934971e-01
1.765380206343140912e-01
1.765380206343140912e-01
1.765380206343140912e-01
1.608712265953381737e-01
1.608712265953381737e-01
1.788307222009934971e-01
1.788307222009934971e-01
1.788307222009934971e-01
1.788307222009934971e-01
1.788307222009934971e-01
1.730989682842949962e-01
1.730989682842949962e-01
1.730989682842949962e-01
1.612533435231180701e-01
1.612533435231180701e-01
1.570500573175391545e-01
1.570500573175391545e-01
1.570500573175391545e-01
1.593427588842185605e-01
1.593427588842185605e-01
1.627818112342376833e-01
1.627818112342376833e-01
1.627818112342376833e-01
1.788307222009934971e-01
1.788307222009934971e-01
1.696599159342759011e-01
1.696599159342759011e-01
1.696599159342759011e-01
1.643102789453572687e-01
1.643102789453572687e-01
1.620175773786778628e-01
1.620175773786778628e-01
1.620175773786778628e-01
1.589606419564386641e-01
1.589606419564386641e-01
1.635460450897974760e-01
1.635460450897974760e-01
1.635460450897974760e-01
1.601069927397783810e-01
1.601069927397783810e-01
1.669850974398165711e-01
1.669850974398165711e-01
1.669850974398165711e-01
1.627818112342376833e-01
1.627818112342376833e-01
1.753916698509744021e-01
1.753916698509744021e-01
1.753916698509744021e-01
1.688956820787160806e-01
1.688956820787160806e-01
1.623996943064577869e-01
1.623996943064577869e-01
1.623996943064577869e-01
1.578142911730989750e-01
1.578142911730989750e-01
1.715705005731753829e-01
1.715705005731753829e-01
1.715705005731753829e-01
1.601069927397783810e-01
1.601069927397783810e-01
1.688956820787160806e-01
1.688956820787160806e-01
1.688956820787160806e-01
1.719526175009552793e-01
1.719526175009552793e-01
1.742453190676346853e-01
1.742453190676346853e-01
1.742453190676346853e-01
1.666029805120366747e-01
1.666029805120366747e-01
1.704241497898356938e-01
1.704241497898356938e-01
1.704241497898356938e-01
1.574321742453190787e-01
1.574321742453190787e-01
1.757737867787542985e-01
1.757737867787542985e-01
1.757737867787542985e-01
1.742453190676346853e-01
1.742453190676346853e-01
1.738632021398547889e-01
1.738632021398547889e-01
1.738632021398547889e-01
1.677493312953763915e-01
1.677493312953763915e-01
1.788307222009934971e-01
1.788307222009934971e-01
1.788307222009934971e-01
1.551394726786396727e-01
1.551394726786396727e-01
1.738632021398547889e-01
1.738632021398547889e-01
1.738632021398547889e-01
1.730989682842949962e-01
1.730989682842949962e-01
1.681314482231562879e-01
1.681314482231562879e-01
1.681314482231562879e-01
1.708062667176155902e-01
1.708062667176155902e-01
1.574321742453190787e-01
1.574321742453190787e-01
1.574321742453190787e-01
1.608712265953381737e-01
1.608712265953381737e-01
1.715705005731753829e-01
1.715705005731753829e-01
1.715705005731753829e-01
1.635460450897974760e-01
1.635460450897974760e-01
1.639281620175773724e-01
1.639281620175773724e-01
1.639281620175773724e-01
1.616354604508979664e-01
1.616354604508979664e-01
1.685135651509361843e-01
1.685135651509361843e-01
1.685135651509361843e-01
1.654566297286969856e-01
1.654566297286969856e-01
1.750095529231945057e-01
1.750095529231945057e-01
1.750095529231945057e-01
1.627818112342376833e-01
1.627818112342376833e-01
1.631639281620175796e-01
1.631639281620175796e-01
1.631639281620175796e-01
1.547573557508597764e-01
1.547573557508597764e-01
1.715705005731753829e-01
1.715705005731753829e-01
1.715705005731753829e-01
1.773022544898739117e-01
1.773022544898739117e-01
1.742453190676346853e-01
1.742453190676346853e-01
1.742453190676346853e-01
1.673672143675964952e-01
1.673672143675964952e-01
1.643102789453572687e-01
1.643102789453572687e-01
1.643102789453572687e-01
1.704241497898356938e-01
1.704241497898356938e-01
1.562858234619793618e-01
1.562858234619793618e-01
1.562858234619793618e-01
1.570500573175391545e-01
1.570500573175391545e-01
1.669850974398165711e-01
1.669850974398165711e-01
1.669850974398165711e-01
1.555215896064195691e-01
1.555215896064195691e-01
1.723347344287352034e-01
1.723347344287352034e-01
1.719526175009552793e-01
1.719526175009552793e-01
1.719526175009552793e-01
1.711883836453954866e-01
1.711883836453954866e-01
1.658387466564768820e-01
1.658387466564768820e-01
1.658387466564768820e-01
1.685135651509361843e-01
1.685135651509361843e-01
1.719526175009552793e-01
1.719526175009552793e-01
1.719526175009552793e-01
1.601069927397783810e-01
1.601069927397783810e-01
1.677493312953763915e-01
1.677493312953763915e-01
1.677493312953763915e-01
1.601069927397783810e-01
1.601069927397783810e-01
1.658387466564768820e-01
1.658387466564768820e-01
1.658387466564768820e-01
1.517004203286205499e-01
1.517004203286205499e-01
1.597248758119984846e-01
1.597248758119984846e-01
1.597248758119984846e-01
1.574321742453190787e-01
1.574321742453190787e-01
1.673672143675964952e-01
1.673672143675964952e-01
1.673672143675964952e-01
1.631639281620175796e-01
1.631639281620175796e-01
1.635460450897974760e-01
1.635460450897974760e-01
1.635460450897974760e-01
1.662208635842567783e-01
1.662208635842567783e-01
1.578142911730989750e-01
1.578142911730989750e-01
1.578142911730989750e-01
1.666029805120366747e-01
1.666029805120366747e-01
1.696599159342759011e-01
1.696599159342759011e-01
1.696599159342759011e-01
1.532288880397401631e-01
1.532288880397401631e-01
1.669850974398165711e-01
1.669850974398165711e-01
1.669850974398165711e-01
1.639281620175773724e-01
1.639281620175773724e-01
1.715705005731753829e-01
1.715705005731753829e-01
1.715705005731753829e-01
1.696599159342759011e-01
1.696599159342759011e-01
1.608712265953381737e-01
1.608712265953381737e-01
1.608712265953381737e-01
1.509361864730607572e-01
1.509361864730607572e-01
1.536110049675200595e-01
1.536110049675200595e-01
1.536110049675200595e-01
1.574321742453190787e-01
1.574321742453190787e-01
1.581964081008788714e-01
1.581964081008788714e-01
1.581964081008788714e-01
1.555215896064195691e-01
1.555215896064195691e-01
1.574321742453190787e-01
1.574321742453190787e-01
1.574321742453190787e-01
1.708062667176155902e-01
1.708062667176155902e-01
1.700420328620557975e-01
1.700420328620557975e-01
1.700420328620557975e-01
1.681314482231562879e-01
1.681314482231562879e-01
1.742453190676346853e-01
1.742453190676346853e-01
1.742453190676346853e-01
1.578142911730989750e-01
1.578142911730989750e-01
1.646923958731371929e-01
1.646923958731371929e-01
1.646923958731371929e-01
1.604891096675582773e-01
1.604891096675582773e-01
1.681314482231562879e-01
1.681314482231562879e-01
1.681314482231562879e-01
1.688956820787160806e-01
1.688956820787160806e-01
1.734810852120748925e-01
1.734810852120748925e-01
1.734810852120748925e-01
1.578142911730989750e-01
1.578142911730989750e-01
1.719526175009552793e-01
1.719526175009552793e-01
1.719526175009552793e-01
1.727168513565150998e-01
1.727168513565150998e-01
1.761559037065341948e-01
1.761559037065341948e-01
1.761559037065341948e-01
1.623996943064577869e-01
1.623996943064577869e-01
1.662208635842567783e-01
1.662208635842567783e-01
1.662208635842567783e-01
1.708062667176155902e-01
1.708062667176155902e-01
1.562858234619793618e-01
1.562858234619793618e-01
1.562858234619793618e-01
1.543752388230798522e-01
1.543752388230798522e-01
1.730989682842949962e-01
1.730989682842949962e-01
1.730989682842949962e-01
1.719526175009552793e-01
1.719526175009552793e-01
1.581964081008788714e-01
1.581964081008788714e-01
1.581964081008788714e-01
1.608712265953381737e-01
1.608712265953381737e-01
1.715705005731753829e-01
1.715705005731753829e-01
1.715705005731753829e-01
1.776843714176538080e-01
1.776843714176538080e-01
1.593427588842185605e-01
1.593427588842185605e-01
1.593427588842185605e-01
1.585785250286587678e-01
1.585785250286587678e-01
1.692777990064959770e-01
1.692777990064959770e-01
1.692777990064959770e-01
1.654566297286969856e-01
1.654566297286969856e-01
1.555215896064195691e-01
1.555215896064195691e-01
1.555215896064195691e-01
1.539931218952999559e-01
1.539931218952999559e-01
1.589606419564386641e-01
1.589606419564386641e-01
1.589606419564386641e-01
1.627818112342376833e-01
1.627818112342376833e-01
1.669850974398165711e-01
1.669850974398165711e-01
1.669850974398165711e-01
1.685135651509361843e-01
1.685135651509361843e-01
1.593427588842185605e-01
1.593427588842185605e-01
1.593427588842185605e-01
1.662208635842567783e-01
1.662208635842567783e-01
1.585785250286587678e-01
1.585785250286587678e-01
1.585785250286587678e-01
1.738632021398547889e-01
1.738632021398547889e-01
1.681314482231562879e-01
1.681314482231562879e-01
1.681314482231562879e-01
1.673672143675964952e-01
1.673672143675964952e-01
1.517004203286205499e-01
1.517004203286205499e-01
1.517004203286205499e-01
1.708062667176155902e-01
1.708062667176155902e-01
1.585785250286587678e-01
1.585785250286587678e-01
1.585785250286587678e-01
1.578142911730989750e-01
1.578142911730989750e-01
1.616354604508979664e-01
1.616354604508979664e-01
1.616354604508979664e-01
1.715705005731753829e-01
1.715705005731753829e-01
1.547573557508597764e-01
1.547573557508597764e-01
1.547573557508597764e-01
1.616354604508979664e-01
1.616354604508979664e-01
1.501719526175009645e-01
1.501719526175009645e-01
1.513183034008406536e-01
1.513183034008406536e-01
1.513183034008406536e-01
1.505540695452808608e-01
1.505540695452808608e-01
1.559037065341994654e-01
1.559037065341994654e-01
1.559037065341994654e-01
1.719526175009552793e-01
1.719526175009552793e-01
1.593427588842185605e-01
1.593427588842185605e-01
1.593427588842185605e-01
1.673672143675964952e-01
1.673672143675964952e-01
1.627818112342376833e-01
1.627818112342376833e-01
1.627818112342376833e-01
1.704241497898356938e-01
1.704241497898356938e-01
1.681314482231562879e-01
1.681314482231562879e-01
1.681314482231562879e-01
1.646923958731371929e-01
1.646923958731371929e-01
1.574321742453190787e-01
1.574321742453190787e-01
1.574321742453190787e-01
1.669850974398165711e-01
1.669850974398165711e-01
1.551394726786396727e-01
1.551394726786396727e-01
1.551394726786396727e-01
1.566679403897592582e-01
1.566679403897592582e-01
1.730989682842949962e-01
1.730989682842949962e-01
1.730989682842949962e-01
1.578142911730989750e-01
1.578142911730989750e-01
1.696599159342759011e-01
1.696599159342759011e-01
1.696599159342759011e-01
1.623996943064577869e-01
1.623996943064577869e-01
1.623996943064577869e-01
1.623996943064577869e-01
1.623996943064577869e-01
1.685135651509361843e-01
1.685135651509361843e-01
1.719526175009552793e-01
1.719526175009552793e-01
1.719526175009552793e-01
1.822697745510126199e-01
1.822697745510126199e-01
1.834161253343523090e-01
1.834161253343523090e-01
1.834161253343523090e-01
1.803591899121131104e-01
1.803591899121131104e-01
2.044325563622468589e-01
2.044325563622468589e-01
2.044325563622468589e-01
2.025219717233473493e-01
2.025219717233473493e-01
2.059610240733664444e-01
2.059610240733664444e-01
2.059610240733664444e-01
2.231562858234619751e-01
2.231562858234619751e-01
2.128391287734046622e-01
2.128391287734046622e-01
2.128391287734046622e-01
2.346197936568590048e-01
2.346197936568590048e-01
2.285059228123805797e-01
2.285059228123805797e-01
2.285059228123805797e-01
2.422621322124570153e-01
2.422621322124570153e-01
2.606037447458922629e-01
2.606037447458922629e-01
2.606037447458922629e-01
2.644249140236912266e-01
2.644249140236912266e-01
2.804738249904470959e-01
2.804738249904470959e-01
2.804738249904470959e-01
2.777990064959877659e-01
2.777990064959877659e-01
2.865876958349254933e-01
2.865876958349254933e-01
2.865876958349254933e-01
2.938479174627435797e-01
2.938479174627435797e-01
3.171570500573175355e-01
3.171570500573175355e-01
3.171570500573175355e-01
3.221245701184562438e-01
3.221245701184562438e-01
3.259457393962552629e-01
3.259457393962552629e-01
3.259457393962552629e-01
3.270920901795949520e-01
3.270920901795949520e-01
3.473442873519296814e-01
3.473442873519296814e-01
3.473442873519296814e-01
3.484906381352693705e-01
3.484906381352693705e-01
3.530760412686281824e-01
3.530760412686281824e-01
3.530760412686281824e-01
3.645395491020252399e-01
3.645395491020252399e-01
3.595720290408865316e-01
3.595720290408865316e-01
3.595720290408865316e-01
3.672143675964845144e-01
3.672143675964845144e-01
3.748567061520825527e-01
3.748567061520825527e-01
3.748567061520825527e-01
3.882307986243790365e-01
3.882307986243790365e-01
3.901413832632785739e-01
3.901413832632785739e-01
3.901413832632785739e-01
3.817348108521207428e-01
3.817348108521207428e-01
3.897592663354986775e-01
3.897592663354986775e-01
3.897592663354986775e-01
4.084829957967138214e-01
4.084829957967138214e-01
4.008406572411157831e-01
4.008406572411157831e-01
4.008406572411157831e-01
4.077187619411539732e-01
4.077187619411539732e-01
4.103935804356133032e-01
4.103935804356133032e-01
4.103935804356133032e-01
4.165074512800917006e-01
4.165074512800917006e-01
4.077187619411539732e-01
4.077187619411539732e-01
4.077187619411539732e-01
4.176538020634313897e-01
4.176538020634313897e-01
4.180359189912112861e-01
4.180359189912112861e-01
4.180359189912112861e-01
4.207107374856706161e-01
4.207107374856706161e-01
4.241497898356897389e-01
4.241497898356897389e-01
4.241497898356897389e-01
4.256782575468093244e-01
4.256782575468093244e-01
4.188001528467711343e-01
4.188001528467711343e-01
4.188001528467711343e-01
4.321742453190676181e-01
4.321742453190676181e-01
4.191822697745510307e-01
4.191822697745510307e-01
4.191822697745510307e-01
4.283530760412686544e-01
4.283530760412686544e-01
4.260603744745892207e-01
4.260603744745892207e-01
4.260603744745892207e-01
4.279709591134887026e-01
4.279709591134887026e-01
4.207107374856706161e-01
4.207107374856706161e-01
4.207107374856706161e-01
4.314100114635078254e-01
4.314100114635078254e-01
4.230034390523499943e-01
4.230034390523499943e-01
4.230034390523499943e-01
4.241497898356897389e-01
4.241497898356897389e-01
4.333205961024073627e-01
4.333205961024073627e-01
4.333205961024073627e-01
4.359954145968666372e-01
4.359954145968666372e-01
4.237676729079098426e-01
4.237676729079098426e-01
4.237676729079098426e-01
4.321742453190676181e-01
4.321742453190676181e-01
4.241497898356897389e-01
4.241497898356897389e-01
4.241497898356897389e-01
4.241497898356897389e-01
4.241497898356897389e-01
4.279709591134887026e-01
4.279709591134887026e-01
4.279709591134887026e-01
4.337027130301872591e-01
4.337027130301872591e-01
4.310278945357279290e-01
4.310278945357279290e-01
4.283530760412686544e-01
4.283530760412686544e-01
4.283530760412686544e-01
4.260603744745892207e-01
4.260603744745892207e-01
4.283530760412686544e-01
4.283530760412686544e-01
4.283530760412686544e-01
4.245319067634696353e-01
4.245319067634696353e-01
4.394344669468857600e-01
4.394344669468857600e-01
4.394344669468857600e-01
4.241497898356897389e-01
4.241497898356897389e-01
4.348490638135269482e-01
4.348490638135269482e-01
4.348490638135269482e-01
4.344669468857470518e-01
4.344669468857470518e-01
4.363775315246465336e-01
4.363775315246465336e-01
4.363775315246465336e-01
4.294994268246083435e-01
4.294994268246083435e-01
4.268246083301490135e-01
4.268246083301490135e-01
4.268246083301490135e-01
4.233855559801299462e-01
4.233855559801299462e-01
4.333205961024073627e-01
4.333205961024073627e-01
4.333205961024073627e-01
4.218570882690103052e-01
4.218570882690103052e-01
4.348490638135269482e-01
4.348490638135269482e-01
4.348490638135269482e-01
4.279709591134887026e-01
4.279709591134887026e-01
4.195643867023309270e-01
4.195643867023309270e-01
4.195643867023309270e-01
4.210928544134505125e-01
4.210928544134505125e-01
4.207107374856706161e-01
4.207107374856706161e-01
4.207107374856706161e-01
4.256782575468093244e-01
4.256782575468093244e-01
4.207107374856706161e-01
4.207107374856706161e-01
4.207107374856706161e-01
4.153611004967520115e-01
4.153611004967520115e-01
4.161253343523118042e-01
4.161253343523118042e-01
4.161253343523118042e-01
4.291173098968284472e-01
4.291173098968284472e-01
4.207107374856706161e-01
4.207107374856706161e-01
4.207107374856706161e-01
4.161253343523118042e-01
4.161253343523118042e-01
4.207107374856706161e-01
4.207107374856706161e-01
4.207107374856706161e-01
4.294994268246083435e-01
4.294994268246083435e-01
4.302636606801681363e-01
4.302636606801681363e-01
4.302636606801681363e-01
4.210928544134505125e-01
4.210928544134505125e-01
4.153611004967520115e-01
4.153611004967520115e-01
4.153611004967520115e-01
4.130683989300725778e-01
4.130683989300725778e-01
4.134505158578525297e-01
4.134505158578525297e-01
4.134505158578525297e-01
4.111578142911730960e-01
4.111578142911730960e-01
4.126862820022926814e-01
4.126862820022926814e-01
4.126862820022926814e-01
4.027512418800152649e-01
4.027512418800152649e-01
4.168895682078715970e-01
4.168895682078715970e-01
4.168895682078715970e-01
4.023691249522353686e-01
4.023691249522353686e-01
3.966373710355368676e-01
3.966373710355368676e-01
3.966373710355368676e-01
4.096293465800535105e-01
4.096293465800535105e-01
4.008406572411157831e-01
4.008406572411157831e-01
4.008406572411157831e-01
3.840275124188001765e-01
3.840275124188001765e-01
3.882307986243790365e-01
3.882307986243790365e-01
3.882307986243790365e-01
3.985479556744364049e-01
3.985479556744364049e-01
3.821169277799006392e-01
3.821169277799006392e-01
3.821169277799006392e-01
3.897592663354986775e-01
3.897592663354986775e-01
3.851738632021398656e-01
3.851738632021398656e-01
3.851738632021398656e-01
3.756209400076423455e-01
3.756209400076423455e-01
3.607183798242262207e-01
3.607183798242262207e-01
3.607183798242262207e-01
3.748567061520825527e-01
3.748567061520825527e-01
3.706534199465036372e-01
3.706534199465036372e-01
3.706534199465036372e-01
3.645395491020252399e-01
3.645395491020252399e-01
3.534581581964080788e-01
3.534581581964080788e-01
3.534581581964080788e-01
3.557508597630875125e-01
3.557508597630875125e-01
3.397019487963316986e-01
3.397019487963316986e-01
3.397019487963316986e-01
3.507833397019488042e-01
3.507833397019488042e-01
3.278563240351547448e-01
3.278563240351547448e-01
3.278563240351547448e-01
3.312953763851738676e-01
3.312953763851738676e-01
3.351165456629728867e-01
3.351165456629728867e-01
3.351165456629728867e-01
3.301490256018341785e-01
3.301490256018341785e-01
3.175391669850974319e-01
3.175391669850974319e-01
3.175391669850974319e-01
3.183034008406572246e-01
3.183034008406572246e-01
3.129537638517386200e-01
3.129537638517386200e-01
3.129537638517386200e-01
3.175391669850974319e-01
3.175391669850974319e-01
3.037829575850209962e-01
3.037829575850209962e-01
3.037829575850209962e-01
3.060756591517004299e-01
3.060756591517004299e-01
3.118074130683989309e-01
3.118074130683989309e-01
3.118074130683989309e-01
3.045471914405808445e-01
3.045471914405808445e-01
2.953763851738632207e-01
2.953763851738632207e-01
2.953763851738632207e-01
2.877340466182651824e-01
2.877340466182651824e-01
2.995796713794421362e-01
2.995796713794421362e-01
2.995796713794421362e-01
2.949942682460833243e-01
2.949942682460833243e-01
2.930836836071837870e-01
2.930836836071837870e-01
2.930836836071837870e-01
2.862055789071455969e-01
2.862055789071455969e-01
2.842949942682460596e-01
2.842949942682460596e-01
2.842949942682460596e-01
2.911730989682843052e-01
2.911730989682843052e-01
2.766526557126480768e-01
2.766526557126480768e-01
2.766526557126480768e-01
2.797095911348873032e-01
2.797095911348873032e-01
2.789453572793274549e-01
2.789453572793274549e-01
2.789453572793274549e-01
2.804738249904470959e-01
2.804738249904470959e-01
2.728314864348490576e-01
2.728314864348490576e-01
2.777990064959877659e-01
2.777990064959877659e-01
2.777990064959877659e-01
2.739778372181887467e-01
2.739778372181887467e-01
2.816201757737867850e-01
2.816201757737867850e-01
2.816201757737867850e-01
2.869698127627053896e-01
2.869698127627053896e-01
2.732136033626289540e-01
2.732136033626289540e-01
2.732136033626289540e-01
2.816201757737867850e-01
2.816201757737867850e-01
2.827665265571264741e-01
2.827665265571264741e-01
2.827665265571264741e-01
2.739778372181887467e-01
2.739778372181887467e-01
2.854413450515858042e-01
2.854413450515858042e-01
2.854413450515858042e-01
2.701566679403897830e-01
2.701566679403897830e-01
2.904088651127245124e-01
2.904088651127245124e-01
2.904088651127245124e-01
2.644249140236912266e-01
2.644249140236912266e-01
2.739778372181887467e-01
2.739778372181887467e-01
2.739778372181887467e-01
2.793274742071073513e-01
2.793274742071073513e-01
2.743599541459686431e-01
2.743599541459686431e-01
2.743599541459686431e-01
2.632785632403515375e-01
2.632785632403515375e-01
