4.283530760412686544e-01
4.283530760412686544e-01
4.401987008024455528e-01
4.401987008024455528e-01
4.184180359189912379e-01
4.184180359189912379e-01
4.184180359189912379e-01
4.444019870080244683e-01
4.444019870080244683e-01
4.386702330913259673e-01
4.386702330913259673e-01
4.386702330913259673e-01
4.172716851356514933e-01
4.172716851356514933e-01
4.165074512800917006e-01
4.165074512800917006e-01
4.165074512800917006e-01
4.065724111578142841e-01
4.065724111578142841e-01
4.050439434466946986e-01
4.050439434466946986e-01
4.050439434466946986e-01
4.069545280855941805e-01
4.069545280855941805e-01
3.920519679021780557e-01
3.920519679021780557e-01
3.920519679021780557e-01
3.809705769965609501e-01
3.809705769965609501e-01
4.035154757355751132e-01
4.035154757355751132e-01
4.035154757355751132e-01
3.725640045854031190e-01
3.725640045854031190e-01
3.614826136797860134e-01
3.614826136797860134e-01
3.614826136797860134e-01
3.588077951853266834e-01
3.588077951853266834e-01
3.817348108521207428e-01
3.817348108521207428e-01
3.817348108521207428e-01
3.786778754298815164e-01
3.786778754298815164e-01
3.744745892243026564e-01
3.744745892243026564e-01
3.744745892243026564e-01
3.565150936186473052e-01
3.565150936186473052e-01
3.630110813909055989e-01
3.630110813909055989e-01
3.630110813909055989e-01
3.588077951853266834e-01
3.588077951853266834e-01
3.461979365685899923e-01
3.461979365685899923e-01
3.461979365685899923e-01
3.270920901795949520e-01
3.270920901795949520e-01
3.213603362628964510e-01
3.213603362628964510e-01
3.213603362628964510e-01
3.354986625907527831e-01
3.354986625907527831e-01
3.416125334352311804e-01
3.416125334352311804e-01
3.416125334352311804e-01
3.225066870462361401e-01
3.225066870462361401e-01
3.198318685517768656e-01
3.198318685517768656e-01
3.198318685517768656e-01
3.244172716851356775e-01
3.244172716851356775e-01
3.076041268628200154e-01
3.076041268628200154e-01
3.076041268628200154e-01
3.175391669850974319e-01
3.175391669850974319e-01
3.026366068016813071e-01
3.026366068016813071e-01
3.026366068016813071e-01
3.320596102407336603e-01
3.320596102407336603e-01
3.205961024073366583e-01
3.205961024073366583e-01
3.205961024073366583e-01
3.217424531906763474e-01
3.217424531906763474e-01
2.984333205961023916e-01
2.984333205961023916e-01
2.984333205961023916e-01
2.995796713794421362e-01
2.995796713794421362e-01
2.927015666794038906e-01
2.927015666794038906e-01
2.927015666794038906e-01
3.056935422239205336e-01
3.056935422239205336e-01
3.183034008406572246e-01
3.183034008406572246e-01
3.183034008406572246e-01
3.129537638517386200e-01
3.129537638517386200e-01
3.076041268628200154e-01
3.076041268628200154e-01
3.076041268628200154e-01
2.858234619793657005e-01
2.858234619793657005e-01
2.911730989682843052e-01
2.911730989682843052e-01
2.911730989682843052e-01
2.991975544516621843e-01
2.991975544516621843e-01
2.946121513183034279e-01
2.946121513183034279e-01
2.946121513183034279e-01
2.835307604126862668e-01
2.835307604126862668e-01
2.911730989682843052e-01
2.911730989682843052e-01
3.060756591517004299e-01
3.060756591517004299e-01
3.060756591517004299e-01
2.755063049293083877e-01
2.755063049293083877e-01
2.892625143293847678e-01
2.892625143293847678e-01
2.892625143293847678e-01
2.942300343905234761e-01
2.942300343905234761e-01
2.682460833014902457e-01
2.682460833014902457e-01
2.682460833014902457e-01
2.808559419182269923e-01
2.808559419182269923e-01
2.621322124570118484e-01
2.621322124570118484e-01
2.621322124570118484e-01
2.693924340848299348e-01
2.693924340848299348e-01
2.827665265571264741e-01
2.827665265571264741e-01
2.827665265571264741e-01
2.514329384791746391e-01
2.514329384791746391e-01
2.739778372181887467e-01
2.739778372181887467e-01
2.739778372181887467e-01
2.457011845624761104e-01
2.457011845624761104e-01
2.720672525792892649e-01
2.720672525792892649e-01
2.720672525792892649e-01
2.777990064959877659e-01
2.777990064959877659e-01
2.724493695070691612e-01
2.724493695070691612e-01
2.724493695070691612e-01
2.648070309514711229e-01
2.648070309514711229e-01
2.598395108903324147e-01
2.598395108903324147e-01
2.598395108903324147e-01
2.670997325181505566e-01
2.670997325181505566e-01
2.617500955292319520e-01
2.617500955292319520e-01
2.617500955292319520e-01
2.625143293847917447e-01
2.625143293847917447e-01
2.460833014902560067e-01
2.460833014902560067e-01
2.460833014902560067e-01
2.288880397401604760e-01
2.288880397401604760e-01
2.357661444401986939e-01
2.357661444401986939e-01
2.357661444401986939e-01
2.560183416125334510e-01
2.560183416125334510e-01
2.476117692013756200e-01
2.476117692013756200e-01
2.476117692013756200e-01
2.288880397401604760e-01
2.288880397401604760e-01
2.265953381734810979e-01
2.265953381734810979e-01
2.265953381734810979e-01
2.483760030569354127e-01
2.483760030569354127e-01
2.223920519679021823e-01
2.223920519679021823e-01
2.223920519679021823e-01
2.231562858234619751e-01
2.231562858234619751e-01
2.346197936568590048e-01
2.346197936568590048e-01
2.346197936568590048e-01
2.388230798624378926e-01
2.388230798624378926e-01
2.365303782957585144e-01
2.365303782957585144e-01
2.365303782957585144e-01
2.170424149789835777e-01
2.170424149789835777e-01
2.067252579289262648e-01
2.067252579289262648e-01
2.067252579289262648e-01
2.139854795567443513e-01
2.139854795567443513e-01
2.277416889568207869e-01
2.277416889568207869e-01
2.277416889568207869e-01
2.006113870844478397e-01
2.006113870844478397e-01
2.040504394344669348e-01
2.040504394344669348e-01
2.040504394344669348e-01
2.151318303400840681e-01
2.151318303400840681e-01
1.944975162399694424e-01
1.944975162399694424e-01
1.944975162399694424e-01
2.212457011845624655e-01
2.212457011845624655e-01
2.029040886511272457e-01
2.029040886511272457e-01
2.029040886511272457e-01
1.929690485288498292e-01
1.929690485288498292e-01
2.109285441345051526e-01
2.109285441345051526e-01
2.109285441345051526e-01
1.883836453954910173e-01
1.883836453954910173e-01
1.971723347344287447e-01
1.971723347344287447e-01
1.971723347344287447e-01
1.853267099732518186e-01
1.853267099732518186e-01
1.925869316010699328e-01
1.925869316010699328e-01
1.925869316010699328e-01
1.837982422621322054e-01
1.837982422621322054e-01
2.009935040122277361e-01
2.009935040122277361e-01
2.009935040122277361e-01
1.815055406954527994e-01
1.815055406954527994e-01
1.857088269010317150e-01
1.857088269010317150e-01
1.857088269010317150e-01
1.952617500955292351e-01
1.952617500955292351e-01
2.044325563622468589e-01
2.044325563622468589e-01
2.044325563622468589e-01
2.044325563622468589e-01
2.044325563622468589e-01
1.711883836453954866e-01
1.711883836453954866e-01
1.711883836453954866e-01
1.658387466564768820e-01
1.658387466564768820e-01
1.738632021398547889e-01
1.738632021398547889e-01
1.738632021398547889e-01
1.711883836453954866e-01
1.711883836453954866e-01
1.891478792510508100e-01
1.891478792510508100e-01
1.891478792510508100e-01
1.918226977455101123e-01
1.918226977455101123e-01
1.883836453954910173e-01
1.883836453954910173e-01
1.883836453954910173e-01
1.627818112342376833e-01
1.627818112342376833e-01
1.685135651509361843e-01
1.685135651509361843e-01
1.685135651509361843e-01
1.604891096675582773e-01
1.604891096675582773e-01
1.857088269010317150e-01
1.857088269010317150e-01
1.857088269010317150e-01
1.677493312953763915e-01
1.677493312953763915e-01
1.799770729843332140e-01
1.799770729843332140e-01
1.799770729843332140e-01
1.738632021398547889e-01
1.738632021398547889e-01
1.834161253343523090e-01
1.834161253343523090e-01
1.834161253343523090e-01
1.639281620175773724e-01
1.639281620175773724e-01
1.872372946121513282e-01
1.872372946121513282e-01
1.872372946121513282e-01
1.841803591899121018e-01
1.841803591899121018e-01
1.608712265953381737e-01
1.608712265953381737e-01
1.608712265953381737e-01
1.501719526175009645e-01
1.501719526175009645e-01
1.669850974398165711e-01
1.669850974398165711e-01
1.669850974398165711e-01
1.773022544898739117e-01
1.773022544898739117e-01
1.673672143675964952e-01
1.673672143675964952e-01
1.673672143675964952e-01
1.452044325563622562e-01
1.452044325563622562e-01
1.666029805120366747e-01
1.666029805120366747e-01
1.616354604508979664e-01
1.616354604508979664e-01
1.616354604508979664e-01
1.543752388230798522e-01
1.543752388230798522e-01
1.467329002674818417e-01
1.467329002674818417e-01
1.467329002674818417e-01
1.432938479174627466e-01
1.432938479174627466e-01
1.459686664119220489e-01
1.459686664119220489e-01
1.459686664119220489e-01
1.440580817730225394e-01
1.440580817730225394e-01
1.440580817730225394e-01
1.440580817730225394e-01
1.440580817730225394e-01
1.730989682842949962e-01
1.730989682842949962e-01
1.612533435231180701e-01
1.612533435231180701e-01
1.612533435231180701e-01
1.643102789453572687e-01
1.643102789453572687e-01
1.681314482231562879e-01
1.681314482231562879e-01
1.681314482231562879e-01
1.513183034008406536e-01
1.513183034008406536e-01
1.692777990064959770e-01
1.692777990064959770e-01
1.692777990064959770e-01
1.539931218952999559e-01
1.539931218952999559e-01
1.474971341230416622e-01
1.474971341230416622e-01
1.474971341230416622e-01
1.711883836453954866e-01
1.711883836453954866e-01
1.501719526175009645e-01
1.501719526175009645e-01
1.501719526175009645e-01
1.413832632785632371e-01
1.413832632785632371e-01
1.413832632785632371e-01
1.413832632785632371e-01
1.413832632785632371e-01
1.566679403897592582e-01
1.566679403897592582e-01
1.658387466564768820e-01
1.658387466564768820e-01
1.658387466564768820e-01
1.333588077951853301e-01
1.333588077951853301e-01
1.387084447841039347e-01
1.387084447841039347e-01
1.387084447841039347e-01
1.387084447841039347e-01
1.387084447841039347e-01
1.620175773786778628e-01
1.620175773786778628e-01
1.620175773786778628e-01
1.501719526175009645e-01
1.501719526175009645e-01
1.348872755063049156e-01
1.348872755063049156e-01
1.348872755063049156e-01
1.337409247229652265e-01
1.337409247229652265e-01
1.322124570118456133e-01
1.322124570118456133e-01
1.322124570118456133e-01
1.459686664119220489e-01
1.459686664119220489e-01
1.589606419564386641e-01
1.589606419564386641e-01
1.589606419564386641e-01
1.371799770729843215e-01
1.371799770729843215e-01
1.387084447841039347e-01
1.387084447841039347e-01
1.387084447841039347e-01
1.383263278563240384e-01
1.383263278563240384e-01
1.383263278563240384e-01
1.383263278563240384e-01
1.383263278563240384e-01
1.566679403897592582e-01
1.566679403897592582e-01
1.432938479174627466e-01
1.432938479174627466e-01
1.432938479174627466e-01
1.314482231562858205e-01
1.314482231562858205e-01
1.471150171952617380e-01
1.471150171952617380e-01
1.471150171952617380e-01
1.287734046618265182e-01
1.287734046618265182e-01
1.593427588842185605e-01
1.593427588842185605e-01
1.593427588842185605e-01
1.578142911730989750e-01
1.578142911730989750e-01
1.608712265953381737e-01
1.608712265953381737e-01
1.608712265953381737e-01
1.364157432174245288e-01
1.364157432174245288e-01
1.280091708062667255e-01
1.280091708062667255e-01
1.280091708062667255e-01
1.402369124952235480e-01
1.402369124952235480e-01
1.551394726786396727e-01
1.551394726786396727e-01
1.551394726786396727e-01
1.299197554451662073e-01
1.299197554451662073e-01
1.394726786396637275e-01
1.394726786396637275e-01
1.394726786396637275e-01
1.260985861673672159e-01
1.260985861673672159e-01
1.566679403897592582e-01
1.566679403897592582e-01
1.566679403897592582e-01
1.536110049675200595e-01
1.536110049675200595e-01
1.260985861673672159e-01
1.260985861673672159e-01
1.260985861673672159e-01
1.482613679786014549e-01
1.482613679786014549e-01
1.375620940007642456e-01
1.375620940007642456e-01
1.375620940007642456e-01
1.360336262896446324e-01
1.360336262896446324e-01
1.341230416507451229e-01
1.341230416507451229e-01
1.341230416507451229e-01
1.593427588842185605e-01
1.593427588842185605e-01
1.452044325563622562e-01
1.452044325563622562e-01
1.452044325563622562e-01
1.398547955674436516e-01
1.398547955674436516e-01
1.559037065341994654e-01
1.559037065341994654e-01
1.559037065341994654e-01
1.318303400840657169e-01
1.318303400840657169e-01
1.528467711119602668e-01
1.528467711119602668e-01
1.528467711119602668e-01
1.306839893007260278e-01
1.306839893007260278e-01
1.303018723729461315e-01
1.303018723729461315e-01
1.303018723729461315e-01
1.513183034008406536e-01
1.513183034008406536e-01
1.383263278563240384e-01
1.383263278563240384e-01
1.383263278563240384e-01
1.459686664119220489e-01
1.459686664119220489e-01
1.295376385173863110e-01
1.295376385173863110e-01
1.295376385173863110e-01
1.520825372564004463e-01
1.520825372564004463e-01
1.322124570118456133e-01
1.322124570118456133e-01
1.322124570118456133e-01
1.471150171952617380e-01
1.471150171952617380e-01
1.593427588842185605e-01
1.593427588842185605e-01
1.593427588842185605e-01
1.574321742453190787e-01
1.574321742453190787e-01
1.234237676729079136e-01
1.234237676729079136e-01
1.234237676729079136e-01
1.566679403897592582e-01
1.566679403897592582e-01
1.643102789453572687e-01
1.643102789453572687e-01
1.643102789453572687e-01
1.517004203286205499e-01
1.517004203286205499e-01
1.631639281620175796e-01
1.631639281620175796e-01
1.631639281620175796e-01
1.623996943064577869e-01
1.623996943064577869e-01
1.536110049675200595e-01
1.536110049675200595e-01
1.536110049675200595e-01
1.597248758119984846e-01
1.597248758119984846e-01
1.574321742453190787e-01
1.574321742453190787e-01
1.513183034008406536e-01
1.513183034008406536e-01
1.513183034008406536e-01
1.880015284677111209e-01
1.880015284677111209e-01
1.830340084065724127e-01
1.830340084065724127e-01
1.830340084065724127e-01
1.803591899121131104e-01
1.803591899121131104e-01
1.914405808177302160e-01
1.914405808177302160e-01
1.914405808177302160e-01
2.044325563622468589e-01
2.044325563622468589e-01
2.071073748567061612e-01
2.071073748567061612e-01
2.071073748567061612e-01
2.017577378677875566e-01
2.017577378677875566e-01
2.120748949178448695e-01
2.120748949178448695e-01
2.120748949178448695e-01
2.392051967902178167e-01
2.392051967902178167e-01
2.556362246847535546e-01
2.556362246847535546e-01
2.556362246847535546e-01
2.338555598012991843e-01
2.338555598012991843e-01
2.464654184180359309e-01
2.464654184180359309e-01
2.464654184180359309e-01
2.823844096293465777e-01
2.823844096293465777e-01
2.617500955292319520e-01
2.617500955292319520e-01
2.617500955292319520e-01
2.743599541459686431e-01
2.743599541459686431e-01
2.896446312571647197e-01
2.896446312571647197e-01
2.896446312571647197e-01
3.041650745128008926e-01
3.041650745128008926e-01
3.186855177684371210e-01
3.186855177684371210e-01
3.186855177684371210e-01
3.121895299961788273e-01
3.121895299961788273e-01
3.347344287351929903e-01
3.347344287351929903e-01
3.347344287351929903e-01
3.389377149407718504e-01
3.389377149407718504e-01
3.305311425296140748e-01
3.305311425296140748e-01
3.305311425296140748e-01
3.721818876576232227e-01
3.721818876576232227e-01
3.534581581964080788e-01
3.534581581964080788e-01
3.534581581964080788e-01
3.526939243408482860e-01
3.526939243408482860e-01
3.809705769965609501e-01
3.809705769965609501e-01
3.809705769965609501e-01
3.714176538020634299e-01
3.714176538020634299e-01
3.851738632021398656e-01
3.851738632021398656e-01
3.851738632021398656e-01
3.771494077187619309e-01
3.771494077187619309e-01
3.832632785632403283e-01
3.832632785632403283e-01
3.832632785632403283e-01
3.981658387466564530e-01
3.981658387466564530e-01
4.222392051967902016e-01
4.222392051967902016e-01
4.222392051967902016e-01
3.958731371799770749e-01
3.958731371799770749e-01
4.061902942300343877e-01
4.061902942300343877e-01
4.061902942300343877e-01
4.088651127244937178e-01
4.088651127244937178e-01
4.107756973633931996e-01
4.107756973633931996e-01
4.107756973633931996e-01
4.218570882690103052e-01
4.218570882690103052e-01
4.363775315246465336e-01
4.363775315246465336e-01
4.363775315246465336e-01
4.359954145968666372e-01
4.359954145968666372e-01
4.367596484524264300e-01
4.367596484524264300e-01
4.367596484524264300e-01
4.237676729079098426e-01
4.237676729079098426e-01
4.390523500191058637e-01
4.390523500191058637e-01
4.390523500191058637e-01
4.524264424914023475e-01
4.524264424914023475e-01
4.440198700802445719e-01
4.440198700802445719e-01
4.440198700802445719e-01
4.474589224302636392e-01
4.474589224302636392e-01
4.333205961024073627e-01
4.333205961024073627e-01
4.333205961024073627e-01
4.600687810470003858e-01
4.600687810470003858e-01
4.444019870080244683e-01
4.444019870080244683e-01
4.444019870080244683e-01
4.558654948414214703e-01
4.558654948414214703e-01
4.459304547191440538e-01
4.459304547191440538e-01
4.459304547191440538e-01
4.405808177302254491e-01
4.405808177302254491e-01
4.535727932747420921e-01
4.535727932747420921e-01
4.535727932747420921e-01
4.722965227359571805e-01
4.722965227359571805e-01
4.466946885747038465e-01
4.466946885747038465e-01
4.466946885747038465e-01
4.585403133358808003e-01
4.585403133358808003e-01
4.623614826136797640e-01
4.623614826136797640e-01
4.623614826136797640e-01
4.459304547191440538e-01
4.459304547191440538e-01
4.497516239969430729e-01
4.497516239969430729e-01
4.497516239969430729e-01
4.508979747802827620e-01
4.508979747802827620e-01
4.669468857470385759e-01
4.669468857470385759e-01
4.669468857470385759e-01
4.512800917080626584e-01
4.512800917080626584e-01
4.539549102025219884e-01
4.539549102025219884e-01
4.539549102025219884e-01
4.665647688192586795e-01
4.665647688192586795e-01
4.497516239969430729e-01
4.497516239969430729e-01
4.497516239969430729e-01
4.726786396637370768e-01
4.726786396637370768e-01
4.807030951471150115e-01
4.807030951471150115e-01
4.807030951471150115e-01
4.535727932747420921e-01
4.535727932747420921e-01
4.761176920137561996e-01
4.761176920137561996e-01
4.761176920137561996e-01
4.711501719526174914e-01
4.711501719526174914e-01
4.753534581581964069e-01
4.753534581581964069e-01
4.753534581581964069e-01
4.680932365303783205e-01
4.680932365303783205e-01
4.768819258693159924e-01
4.768819258693159924e-01
4.768819258693159924e-01
4.547191440580817812e-01
4.547191440580817812e-01
4.780282766526557370e-01
4.780282766526557370e-01
4.780282766526557370e-01
4.784103935804356333e-01
4.784103935804356333e-01
4.558654948414214703e-01
4.558654948414214703e-01
4.558654948414214703e-01
4.780282766526557370e-01
4.780282766526557370e-01
4.772640427970958887e-01
4.772640427970958887e-01
4.772640427970958887e-01
4.547191440580817812e-01
4.547191440580817812e-01
4.516622086358425547e-01
4.516622086358425547e-01
4.638899503247994049e-01
4.638899503247994049e-01
4.638899503247994049e-01
4.451662208635842610e-01
4.451662208635842610e-01
4.463125716469239501e-01
4.463125716469239501e-01
4.463125716469239501e-01
4.719144058081772841e-01
4.719144058081772841e-01
4.566297286969812630e-01
4.566297286969812630e-01
4.566297286969812630e-01
4.669468857470385759e-01
4.669468857470385759e-01
4.405808177302254491e-01
4.405808177302254491e-01
4.405808177302254491e-01
4.363775315246465336e-01
4.363775315246465336e-01
4.570118456247611594e-01
4.570118456247611594e-01
4.570118456247611594e-01
4.581581964081009040e-01
4.581581964081009040e-01
4.428735192969048273e-01
4.428735192969048273e-01
4.428735192969048273e-01
4.256782575468093244e-01
4.256782575468093244e-01
4.428735192969048273e-01
4.428735192969048273e-01
4.428735192969048273e-01
4.505158578525028656e-01
4.505158578525028656e-01
4.264424914023691171e-01
4.264424914023691171e-01
4.264424914023691171e-01
4.325563622468475145e-01
4.325563622468475145e-01
4.184180359189912379e-01
4.184180359189912379e-01
4.184180359189912379e-01
4.226213221245700979e-01
4.226213221245700979e-01
4.038975926633550095e-01
4.038975926633550095e-01
4.038975926633550095e-01
3.920519679021780557e-01
3.920519679021780557e-01
3.966373710355368676e-01
3.966373710355368676e-01
3.966373710355368676e-01
3.977837218188765567e-01
3.977837218188765567e-01
4.084829957967138214e-01
4.084829957967138214e-01
4.084829957967138214e-01
3.809705769965609501e-01
3.809705769965609501e-01
4.019870080244554722e-01
4.019870080244554722e-01
4.019870080244554722e-01
3.698891860909438445e-01
3.698891860909438445e-01
3.717997707298433263e-01
3.717997707298433263e-01
3.717997707298433263e-01
3.622468475353458062e-01
3.622468475353458062e-01
3.733282384409629118e-01
3.733282384409629118e-01
3.733282384409629118e-01
3.477264042797095778e-01
3.477264042797095778e-01
3.423767672907909732e-01
3.423767672907909732e-01
3.423767672907909732e-01
3.664501337409247217e-01
3.664501337409247217e-01
3.412304165074512841e-01
3.412304165074512841e-01
3.412304165074512841e-01
3.450515857852503032e-01
3.450515857852503032e-01
3.408482995796713877e-01
3.408482995796713877e-01
3.408482995796713877e-01
3.465800534963698887e-01
3.465800534963698887e-01
3.118074130683989309e-01
3.118074130683989309e-01
3.118074130683989309e-01
3.152464654184180537e-01
3.152464654184180537e-01
3.205961024073366583e-01
3.205961024073366583e-01
3.205961024073366583e-01
3.030187237294612035e-01
3.030187237294612035e-01
2.984333205961023916e-01
2.984333205961023916e-01
2.984333205961023916e-01
3.018723729461215144e-01
3.018723729461215144e-01
3.194497516239969692e-01
3.194497516239969692e-01
3.194497516239969692e-01
3.083683607183798081e-01
3.083683607183798081e-01
2.972869698127627025e-01
2.972869698127627025e-01
2.972869698127627025e-01
3.091325945739396008e-01
3.091325945739396008e-01
2.984333205961023916e-01
2.984333205961023916e-01
2.984333205961023916e-01
2.755063049293083877e-01
2.755063049293083877e-01
2.942300343905234761e-01
2.942300343905234761e-01
2.942300343905234761e-01
2.762705387848681804e-01
2.762705387848681804e-01
2.988154375238822880e-01
2.988154375238822880e-01
2.988154375238822880e-01
2.781811234237676622e-01
2.781811234237676622e-01
2.858234619793657005e-01
2.858234619793657005e-01
2.858234619793657005e-01
2.781811234237676622e-01
2.781811234237676622e-01
2.888803974016048715e-01
2.888803974016048715e-01
2.888803974016048715e-01
2.548719908291937064e-01
2.548719908291937064e-01
2.560183416125334510e-01
2.560183416125334510e-01
2.560183416125334510e-01
2.518150554069545355e-01
2.518150554069545355e-01
2.693924340848299348e-01
2.693924340848299348e-01
2.693924340848299348e-01
2.785632403515475586e-01
2.785632403515475586e-01
2.548719908291937064e-01
2.548719908291937064e-01
2.548719908291937064e-01
2.690103171570500384e-01
2.690103171570500384e-01
2.609858616736721593e-01
2.609858616736721593e-01
2.609858616736721593e-01
2.556362246847535546e-01
2.556362246847535546e-01
2.678639663737103493e-01
2.678639663737103493e-01
2.678639663737103493e-01
2.598395108903324147e-01
2.598395108903324147e-01
2.422621322124570153e-01
2.422621322124570153e-01
2.422621322124570153e-01
2.460833014902560067e-01
2.460833014902560067e-01
2.621322124570118484e-01
2.621322124570118484e-01
2.621322124570118484e-01
2.369124952235384107e-01
2.369124952235384107e-01
2.376767290790982035e-01
2.376767290790982035e-01
2.376767290790982035e-01
2.544898739014138100e-01
2.544898739014138100e-01
2.327092090179594952e-01
2.327092090179594952e-01
2.327092090179594952e-01
2.239205196790217678e-01
2.239205196790217678e-01
2.288880397401604760e-01
2.288880397401604760e-01
2.288880397401604760e-01
2.139854795567443513e-01
2.139854795567443513e-01
2.288880397401604760e-01
2.288880397401604760e-01
2.288880397401604760e-01
2.273595720290408906e-01
2.273595720290408906e-01
2.254489873901413810e-01
2.254489873901413810e-01
2.254489873901413810e-01
2.330913259457393916e-01
2.330913259457393916e-01
2.074894917844860576e-01
2.074894917844860576e-01
2.074894917844860576e-01
2.067252579289262648e-01
2.067252579289262648e-01
2.025219717233473493e-01
2.025219717233473493e-01
2.155139472678639645e-01
2.155139472678639645e-01
2.155139472678639645e-01
2.197172334734428800e-01
2.197172334734428800e-01
1.914405808177302160e-01
1.914405808177302160e-01
1.914405808177302160e-01
2.128391287734046622e-01
2.128391287734046622e-01
2.174245319067634741e-01
2.174245319067634741e-01
2.174245319067634741e-01
2.051967902178066516e-01
2.051967902178066516e-01
2.040504394344669348e-01
2.040504394344669348e-01
2.040504394344669348e-01
2.158960641956438609e-01
2.158960641956438609e-01
1.857088269010317150e-01
1.857088269010317150e-01
1.857088269010317150e-01
2.132212457011845586e-01
2.132212457011845586e-01
1.910584638899503196e-01
1.910584638899503196e-01
1.910584638899503196e-01
1.990829193733282265e-01
1.990829193733282265e-01
1.952617500955292351e-01
1.952617500955292351e-01
1.952617500955292351e-01
1.799770729843332140e-01
1.799770729843332140e-01
1.899121131066106305e-01
1.899121131066106305e-01
1.899121131066106305e-01
1.853267099732518186e-01
1.853267099732518186e-01
1.906763469621704232e-01
1.906763469621704232e-01
1.906763469621704232e-01
1.975544516622086411e-01
1.975544516622086411e-01
1.685135651509361843e-01
1.685135651509361843e-01
1.685135651509361843e-01
1.880015284677111209e-01
1.880015284677111209e-01
1.792128391287733935e-01
1.792128391287733935e-01
1.792128391287733935e-01
1.845624761176920259e-01
1.845624761176920259e-01
1.830340084065724127e-01
1.830340084065724127e-01
1.830340084065724127e-01
1.639281620175773724e-01
1.639281620175773724e-01
1.757737867787542985e-01
1.757737867787542985e-01
1.757737867787542985e-01
1.811234237676729031e-01
1.811234237676729031e-01
1.513183034008406536e-01
1.513183034008406536e-01
1.513183034008406536e-01
1.742453190676346853e-01
1.742453190676346853e-01
1.730989682842949962e-01
1.730989682842949962e-01
1.730989682842949962e-01
1.757737867787542985e-01
1.757737867787542985e-01
1.757737867787542985e-01
1.757737867787542985e-01
1.757737867787542985e-01
1.520825372564004463e-01
1.520825372564004463e-01
1.612533435231180701e-01
1.612533435231180701e-01
1.612533435231180701e-01
1.440580817730225394e-01
1.440580817730225394e-01
1.371799770729843215e-01
1.371799770729843215e-01
1.371799770729843215e-01
1.494077187619411440e-01
1.494077187619411440e-01
1.559037065341994654e-01
1.559037065341994654e-01
1.559037065341994654e-01
1.367978601452044252e-01
1.367978601452044252e-01
1.432938479174627466e-01
1.432938479174627466e-01
1.432938479174627466e-01
1.299197554451662073e-01
1.299197554451662073e-01
1.581964081008788714e-01
1.581964081008788714e-01
1.581964081008788714e-01
1.513183034008406536e-01
1.513183034008406536e-01
1.555215896064195691e-01
1.555215896064195691e-01
1.555215896064195691e-01
1.482613679786014549e-01
1.482613679786014549e-01
1.211310661062285077e-01
1.211310661062285077e-01
1.211310661062285077e-01
1.467329002674818417e-01
1.467329002674818417e-01
1.199847153228888047e-01
1.199847153228888047e-01
1.199847153228888047e-01
1.222774168895682106e-01
1.222774168895682106e-01
1.440580817730225394e-01
1.440580817730225394e-01
1.440580817730225394e-01
1.188383645395491017e-01
1.188383645395491017e-01
1.463507833397019453e-01
1.463507833397019453e-01
1.463507833397019453e-01
1.345051585785250192e-01
1.345051585785250192e-01
1.364157432174245288e-01
1.364157432174245288e-01
1.364157432174245288e-01
1.371799770729843215e-01
1.371799770729843215e-01
1.318303400840657169e-01
1.318303400840657169e-01
1.318303400840657169e-01
1.226595338173481070e-01
1.226595338173481070e-01
1.230416507451280034e-01
1.230416507451280034e-01
1.230416507451280034e-01
1.264807030951471123e-01
1.264807030951471123e-01
1.153993121895299928e-01
1.153993121895299928e-01
1.153993121895299928e-01
1.390905617118838311e-01
1.390905617118838311e-01
1.333588077951853301e-01
1.333588077951853301e-01
1.333588077951853301e-01
1.100496752006113882e-01
1.100496752006113882e-01
1.226595338173481070e-01
1.226595338173481070e-01
1.226595338173481070e-01
1.027894535727932740e-01
1.027894535727932740e-01
1.138708444784103935e-01
1.138708444784103935e-01
1.138708444784103935e-01
1.180741306839892951e-01
1.180741306839892951e-01
9.782193351165456574e-02
9.782193351165456574e-02
9.782193351165456574e-02
1.241880015284677063e-01
1.241880015284677063e-01
1.012609858616736747e-01
1.012609858616736747e-01
1.012609858616736747e-01
9.667558272831486277e-02
9.667558272831486277e-02
1.096675582728314918e-01
1.096675582728314918e-01
1.096675582728314918e-01
9.361864730607566409e-02
9.361864730607566409e-02
1.218952999617883004e-01
1.218952999617883004e-01
1.218952999617883004e-01
9.209017959495605088e-02
9.209017959495605088e-02
1.218952999617883004e-01
1.218952999617883004e-01
1.218952999617883004e-01
1.062285059228123829e-01
1.062285059228123829e-01
9.017959495605655518e-02
9.017959495605655518e-02
9.017959495605655518e-02
9.782193351165456574e-02
9.782193351165456574e-02
8.712265953381734263e-02
8.712265953381734263e-02
8.712265953381734263e-02
1.047000382116927836e-01
1.047000382116927836e-01
9.667558272831486277e-02
9.667558272831486277e-02
8.712265953381734263e-02
8.712265953381734263e-02
8.712265953381734263e-02
9.896828429499426871e-02
9.896828429499426871e-02
8.024455483377913867e-02
8.024455483377913867e-02
8.024455483377913867e-02
9.705769965609475913e-02
9.705769965609475913e-02
9.361864730607566409e-02
9.361864730607566409e-02
9.361864730607566409e-02
1.127244936950706905e-01
1.127244936950706905e-01
9.514711501719526343e-02
9.514711501719526343e-02
9.514711501719526343e-02
8.559419182269774329e-02
8.559419182269774329e-02
1.058463889950324865e-01
1.058463889950324865e-01
1.058463889950324865e-01
8.291937332823844098e-02
8.291937332823844098e-02
1.024073366450133776e-01
1.024073366450133776e-01
1.024073366450133776e-01
9.094382881161634791e-02
9.094382881161634791e-02
7.795185326709973272e-02
7.795185326709973272e-02
7.795185326709973272e-02
1.008788689338937783e-01
1.008788689338937783e-01
7.909820405043943570e-02
7.909820405043943570e-02
7.909820405043943570e-02
7.871608712265953933e-02
7.871608712265953933e-02
7.986243790599924230e-02
7.986243790599924230e-02
7.986243790599924230e-02
9.552923194497515980e-02
9.552923194497515980e-02
1.020252197172334674e-01
1.020252197172334674e-01
1.020252197172334674e-01
7.030951471150172216e-02
7.030951471150172216e-02
7.986243790599924230e-02
7.986243790599924230e-02
7.986243790599924230e-02
7.413068398930072744e-02
7.413068398930072744e-02
7.604126862820022315e-02
7.604126862820022315e-02
7.604126862820022315e-02
7.489491784486053405e-02
7.489491784486053405e-02
9.400076423385556046e-02
9.400076423385556046e-02
9.400076423385556046e-02
9.705769965609475913e-02
9.705769965609475913e-02
9.285441345051585749e-02
9.285441345051585749e-02
9.285441345051585749e-02
9.361864730607566409e-02
9.361864730607566409e-02
6.878104700038212282e-02
6.878104700038212282e-02
6.878104700038212282e-02
7.489491784486053405e-02
7.489491784486053405e-02
8.826901031715704560e-02
8.826901031715704560e-02
8.826901031715704560e-02
8.215513947267863437e-02
8.215513947267863437e-02
6.878104700038212282e-02
6.878104700038212282e-02
6.878104700038212282e-02
7.986243790599924230e-02
7.986243790599924230e-02
8.139090561711884164e-02
8.139090561711884164e-02
8.139090561711884164e-02
8.024455483377913867e-02
8.024455483377913867e-02
7.107374856706151489e-02
7.107374856706151489e-02
7.107374856706151489e-02
6.534199465036301391e-02
6.534199465036301391e-02
9.247229652273596112e-02
9.247229652273596112e-02
9.247229652273596112e-02
6.495987772258310367e-02
6.495987772258310367e-02
7.909820405043943570e-02
7.909820405043943570e-02
7.909820405043943570e-02
6.916316392816201919e-02
6.916316392816201919e-02
6.954528085594191555e-02
6.954528085594191555e-02
6.954528085594191555e-02
9.361864730607566409e-02
9.361864730607566409e-02
8.139090561711884164e-02
8.139090561711884164e-02
8.139090561711884164e-02
9.476499808941536707e-02
9.476499808941536707e-02
7.642338555598013339e-02
7.642338555598013339e-02
7.642338555598013339e-02
7.069163163928161853e-02
7.069163163928161853e-02
8.482995796713795056e-02
8.482995796713795056e-02
8.482995796713795056e-02
8.903324417271685220e-02
8.903324417271685220e-02
8.215513947267863437e-02
8.215513947267863437e-02
8.215513947267863437e-02
9.667558272831486277e-02
9.667558272831486277e-02
8.826901031715704560e-02
8.826901031715704560e-02
8.826901031715704560e-02
7.145586549484142513e-02
7.145586549484142513e-02
7.948032097821933206e-02
7.948032097821933206e-02
7.948032097821933206e-02
9.285441345051585749e-02
9.285441345051585749e-02
9.209017959495605088e-02
9.209017959495605088e-02
9.209017959495605088e-02
8.941536110049674857e-02
8.941536110049674857e-02
7.145586549484142513e-02
7.145586549484142513e-02
7.145586549484142513e-02
7.107374856706151489e-02
7.107374856706151489e-02
7.336645013374092084e-02
7.336645013374092084e-02
7.336645013374092084e-02
7.413068398930072744e-02
7.413068398930072744e-02
8.826901031715704560e-02
8.826901031715704560e-02
8.826901031715704560e-02
1.066106228505922793e-01
1.066106228505922793e-01
1.012609858616736747e-01
1.012609858616736747e-01
1.012609858616736747e-01
9.323653037829575385e-02
9.323653037829575385e-02
1.264807030951471123e-01
1.264807030951471123e-01
1.264807030951471123e-01
1.287734046618265182e-01
1.287734046618265182e-01
1.283912877340466219e-01
1.283912877340466219e-01
1.283912877340466219e-01
1.280091708062667255e-01
1.280091708062667255e-01
1.295376385173863110e-01
1.295376385173863110e-01
1.295376385173863110e-01
1.341230416507451229e-01
1.341230416507451229e-01
1.643102789453572687e-01
1.643102789453572687e-01
1.643102789453572687e-01
1.841803591899121018e-01
1.841803591899121018e-01
1.650745128009170892e-01
1.650745128009170892e-01
1.650745128009170892e-01
1.929690485288498292e-01
1.929690485288498292e-01
2.139854795567443513e-01
2.139854795567443513e-01
2.139854795567443513e-01
2.174245319067634741e-01
2.174245319067634741e-01
2.101643102789453599e-01
2.101643102789453599e-01
2.101643102789453599e-01
2.460833014902560067e-01
2.460833014902560067e-01
2.380588460068780998e-01
2.380588460068780998e-01
2.464654184180359309e-01
2.464654184180359309e-01
2.464654184180359309e-01
2.625143293847917447e-01
2.625143293847917447e-01
2.709209017959495758e-01
2.709209017959495758e-01
2.709209017959495758e-01
2.808559419182269923e-01
2.808559419182269923e-01
2.713030187237294721e-01
2.713030187237294721e-01
2.713030187237294721e-01
2.846771111960260114e-01
2.846771111960260114e-01
2.953763851738632207e-01
2.953763851738632207e-01
2.953763851738632207e-01
3.118074130683989309e-01
3.118074130683989309e-01
3.076041268628200154e-01
3.076041268628200154e-01
3.076041268628200154e-01
3.121895299961788273e-01
3.121895299961788273e-01
3.404661826518914913e-01
3.404661826518914913e-01
3.404661826518914913e-01
3.431410011463507659e-01
3.431410011463507659e-01
3.439052350019105586e-01
3.439052350019105586e-01
3.439052350019105586e-01
3.316774933129537639e-01
3.316774933129537639e-01
3.675964845242644108e-01
3.675964845242644108e-01
3.675964845242644108e-01
3.721818876576232227e-01
3.721818876576232227e-01
3.584256782575467870e-01
3.584256782575467870e-01
3.584256782575467870e-01
3.591899121131066352e-01
3.591899121131066352e-01
3.591899121131066352e-01
3.591899121131066352e-01
3.591899121131066352e-01
3.836453954910202246e-01
3.836453954910202246e-01
3.733282384409629118e-01
3.733282384409629118e-01
3.733282384409629118e-01
3.859380970576996583e-01
3.859380970576996583e-01
4.008406572411157831e-01
4.008406572411157831e-01
4.008406572411157831e-01
3.920519679021780557e-01
3.920519679021780557e-01
3.886129155521589329e-01
3.886129155521589329e-01
3.886129155521589329e-01
3.824990447076805355e-01
3.824990447076805355e-01
4.103935804356133032e-01
4.103935804356133032e-01
4.103935804356133032e-01
4.004585403133358867e-01
4.004585403133358867e-01
4.081008788689338695e-01
4.081008788689338695e-01
4.081008788689338695e-01
3.909056171188383666e-01
3.909056171188383666e-01
4.210928544134505125e-01
4.210928544134505125e-01
4.210928544134505125e-01
4.207107374856706161e-01
4.207107374856706161e-01
4.031333588077951613e-01
4.031333588077951613e-01
4.031333588077951613e-01
4.119220481467328887e-01
4.119220481467328887e-01
4.237676729079098426e-01
4.237676729079098426e-01
4.237676729079098426e-01
4.103935804356133032e-01
4.103935804356133032e-01
4.275888421857088062e-01
4.275888421857088062e-01
4.275888421857088062e-01
4.252961406190294280e-01
4.252961406190294280e-01
4.092472296522736142e-01
4.092472296522736142e-01
4.092472296522736142e-01
4.222392051967902016e-01
4.222392051967902016e-01
4.329384791746274108e-01
4.329384791746274108e-01
4.329384791746274108e-01
4.176538020634313897e-01
4.176538020634313897e-01
4.447841039358043647e-01
4.447841039358043647e-01
4.447841039358043647e-01
4.256782575468093244e-01
4.256782575468093244e-01
4.398165838746656564e-01
4.398165838746656564e-01
4.398165838746656564e-01
4.405808177302254491e-01
4.405808177302254491e-01
4.218570882690103052e-01
4.218570882690103052e-01
4.218570882690103052e-01
4.436377531524646756e-01
4.436377531524646756e-01
4.421092854413450346e-01
4.421092854413450346e-01
4.421092854413450346e-01
4.218570882690103052e-01
4.218570882690103052e-01
4.222392051967902016e-01
4.222392051967902016e-01
4.222392051967902016e-01
4.264424914023691171e-01
4.264424914023691171e-01
4.409629346580053455e-01
4.409629346580053455e-01
4.409629346580053455e-01
4.256782575468093244e-01
4.256782575468093244e-01
4.455483377913641574e-01
4.455483377913641574e-01
4.455483377913641574e-01
4.528085594191822438e-01
4.528085594191822438e-01
4.294994268246083435e-01
4.294994268246083435e-01
4.294994268246083435e-01
4.482231562858234875e-01
4.482231562858234875e-01
4.230034390523499943e-01
4.230034390523499943e-01
4.230034390523499943e-01
4.321742453190676181e-01
4.321742453190676181e-01
4.394344669468857600e-01
4.394344669468857600e-01
4.394344669468857600e-01
4.424914023691249310e-01
4.424914023691249310e-01
4.283530760412686544e-01
4.283530760412686544e-01
4.283530760412686544e-01
4.268246083301490135e-01
4.268246083301490135e-01
4.486052732136033838e-01
4.486052732136033838e-01
4.486052732136033838e-01
4.340848299579671554e-01
4.340848299579671554e-01
4.176538020634313897e-01
4.176538020634313897e-01
4.176538020634313897e-01
4.149789835689721151e-01
4.149789835689721151e-01
4.371417653802063263e-01
4.371417653802063263e-01
4.371417653802063263e-01
4.176538020634313897e-01
4.176538020634313897e-01
4.256782575468093244e-01
4.256782575468093244e-01
4.256782575468093244e-01
4.371417653802063263e-01
4.371417653802063263e-01
4.363775315246465336e-01
4.363775315246465336e-01
4.363775315246465336e-01
4.054260603744745950e-01
4.054260603744745950e-01
4.019870080244554722e-01
4.019870080244554722e-01
4.019870080244554722e-01
4.119220481467328887e-01
4.119220481467328887e-01
3.977837218188765567e-01
3.977837218188765567e-01
3.977837218188765567e-01
4.142147497134123224e-01
4.142147497134123224e-01
3.977837218188765567e-01
3.977837218188765567e-01
3.977837218188765567e-01
3.882307986243790365e-01
3.882307986243790365e-01
3.989300726022163013e-01
3.989300726022163013e-01
3.989300726022163013e-01
4.042797095911349059e-01
4.042797095911349059e-01
4.008406572411157831e-01
4.008406572411157831e-01
3.763851738632021382e-01
3.763851738632021382e-01
3.763851738632021382e-01
3.889950324799388848e-01
3.889950324799388848e-01
3.530760412686281824e-01
3.530760412686281824e-01
3.530760412686281824e-01
3.572793274742070979e-01
3.572793274742070979e-01
3.458158196408100959e-01
3.458158196408100959e-01
3.458158196408100959e-01
3.637753152464653916e-01
3.637753152464653916e-01
3.439052350019105586e-01
3.439052350019105586e-01
3.439052350019105586e-01
3.519296904852884933e-01
3.519296904852884933e-01
3.347344287351929903e-01
3.347344287351929903e-01
3.347344287351929903e-01
3.270920901795949520e-01
3.270920901795949520e-01
3.461979365685899923e-01
3.461979365685899923e-01
3.461979365685899923e-01
3.179212839128773282e-01
3.179212839128773282e-01
3.209782193351165547e-01
3.209782193351165547e-01
3.209782193351165547e-01
3.228888039740160365e-01
3.228888039740160365e-01
3.072220099350401190e-01
3.072220099350401190e-01
3.072220099350401190e-01
3.190676346962170173e-01
3.190676346962170173e-01
2.984333205961023916e-01
2.984333205961023916e-01
2.984333205961023916e-01
2.904088651127245124e-01
2.904088651127245124e-01
3.102789453572793454e-01
3.102789453572793454e-01
3.102789453572793454e-01
2.972869698127627025e-01
2.972869698127627025e-01
2.888803974016048715e-01
2.888803974016048715e-01
2.888803974016048715e-01
2.793274742071073513e-01
2.793274742071073513e-01
3.018723729461215144e-01
3.018723729461215144e-01
3.018723729461215144e-01
2.965227359572029098e-01
2.965227359572029098e-01
2.938479174627435797e-01
2.938479174627435797e-01
2.938479174627435797e-01
2.896446312571647197e-01
2.896446312571647197e-01
2.927015666794038906e-01
2.927015666794038906e-01
2.927015666794038906e-01
2.781811234237676622e-01
2.781811234237676622e-01
2.762705387848681804e-01
2.762705387848681804e-01
2.762705387848681804e-01
2.571646923958731401e-01
2.571646923958731401e-01
2.862055789071455969e-01
2.862055789071455969e-01
2.862055789071455969e-01
2.636606801681314338e-01
2.636606801681314338e-01
2.651891478792510748e-01
2.651891478792510748e-01
2.651891478792510748e-01
2.789453572793274549e-01
2.789453572793274549e-01
2.499044707680550259e-01
2.499044707680550259e-01
2.499044707680550259e-01
2.735957202904088503e-01
2.735957202904088503e-01
2.464654184180359309e-01
2.464654184180359309e-01
2.464654184180359309e-01
2.663354986625907639e-01
2.663354986625907639e-01
2.697745510126098312e-01
2.697745510126098312e-01
2.697745510126098312e-01
2.705387848681696794e-01
2.705387848681696794e-01
2.384409629346579962e-01
2.384409629346579962e-01
2.384409629346579962e-01
2.644249140236912266e-01
2.644249140236912266e-01
2.655712648070309712e-01
2.655712648070309712e-01
2.655712648070309712e-01
2.453190676346962140e-01
2.453190676346962140e-01
2.628964463125716411e-01
2.628964463125716411e-01
2.628964463125716411e-01
2.304165074512800893e-01
2.304165074512800893e-01
2.502865876958349500e-01
2.502865876958349500e-01
2.502865876958349500e-01
2.499044707680550259e-01
2.499044707680550259e-01
2.285059228123805797e-01
2.285059228123805797e-01
2.285059228123805797e-01
2.246847535345815883e-01
2.246847535345815883e-01
2.369124952235384107e-01
2.369124952235384107e-01
2.369124952235384107e-01
2.220099350401222860e-01
2.220099350401222860e-01
2.204814673290026728e-01
2.204814673290026728e-01
2.204814673290026728e-01
2.418800152846771190e-01
2.418800152846771190e-01
2.120748949178448695e-01
2.120748949178448695e-01
2.120748949178448695e-01
2.300343905235001929e-01
2.300343905235001929e-01
2.323270920901795988e-01
2.323270920901795988e-01
2.323270920901795988e-01
2.246847535345815883e-01
2.246847535345815883e-01
2.101643102789453599e-01
2.101643102789453599e-01
2.101643102789453599e-01
2.048146732900267553e-01
2.048146732900267553e-01
2.044325563622468589e-01
2.044325563622468589e-01
2.044325563622468589e-01
2.120748949178448695e-01
2.120748949178448695e-01
2.239205196790217678e-01
2.239205196790217678e-01
2.239205196790217678e-01
1.971723347344287447e-01
1.971723347344287447e-01
2.101643102789453599e-01
2.101643102789453599e-01
2.101643102789453599e-01
2.059610240733664444e-01
2.059610240733664444e-01
2.262132212457011737e-01
2.262132212457011737e-01
2.262132212457011737e-01
2.216278181123423896e-01
2.216278181123423896e-01
2.048146732900267553e-01
2.048146732900267553e-01
2.048146732900267553e-01
2.174245319067634741e-01
2.174245319067634741e-01
2.147497134123041718e-01
2.147497134123041718e-01
2.147497134123041718e-01
1.864730607565915077e-01
1.864730607565915077e-01
1.983186855177684338e-01
1.983186855177684338e-01
1.983186855177684338e-01
1.826518914787925163e-01
1.826518914787925163e-01
2.086358425678257467e-01
2.086358425678257467e-01
2.086358425678257467e-01
2.090179594956056430e-01
2.090179594956056430e-01
2.029040886511272457e-01
2.029040886511272457e-01
2.029040886511272457e-01
2.006113870844478397e-01
2.006113870844478397e-01
2.017577378677875566e-01
2.017577378677875566e-01
2.017577378677875566e-01
1.711883836453954866e-01
1.711883836453954866e-01
1.994650363011081506e-01
1.994650363011081506e-01
1.895299961788307341e-01
1.895299961788307341e-01
1.895299961788307341e-01
1.880015284677111209e-01
1.880015284677111209e-01
1.880015284677111209e-01
1.880015284677111209e-01
1.880015284677111209e-01
1.723347344287352034e-01
1.723347344287352034e-01
1.925869316010699328e-01
1.925869316010699328e-01
1.925869316010699328e-01
1.746274359954146094e-01
1.746274359954146094e-01
1.578142911730989750e-01
1.578142911730989750e-01
1.578142911730989750e-01
1.669850974398165711e-01
1.669850974398165711e-01
1.807413068398930067e-01
1.807413068398930067e-01
1.807413068398930067e-01
1.822697745510126199e-01
1.822697745510126199e-01
1.761559037065341948e-01
1.761559037065341948e-01
1.761559037065341948e-01
1.566679403897592582e-01
1.566679403897592582e-01
1.719526175009552793e-01
1.719526175009552793e-01
1.719526175009552793e-01
1.478792510508215585e-01
1.478792510508215585e-01
1.666029805120366747e-01
1.666029805120366747e-01
1.666029805120366747e-01
1.536110049675200595e-01
1.536110049675200595e-01
1.711883836453954866e-01
1.711883836453954866e-01
1.711883836453954866e-01
1.425296140619029539e-01
1.425296140619029539e-01
1.704241497898356938e-01
1.704241497898356938e-01
1.704241497898356938e-01
1.528467711119602668e-01
1.528467711119602668e-01
1.364157432174245288e-01
1.364157432174245288e-01
1.364157432174245288e-01
1.623996943064577869e-01
1.623996943064577869e-01
1.677493312953763915e-01
1.677493312953763915e-01
1.677493312953763915e-01
1.585785250286587678e-01
1.585785250286587678e-01
1.352693924340848397e-01
1.352693924340848397e-01
1.352693924340848397e-01
1.322124570118456133e-01
1.322124570118456133e-01
1.620175773786778628e-01
1.620175773786778628e-01
1.620175773786778628e-01
1.627818112342376833e-01
1.627818112342376833e-01
1.455865494841421526e-01
1.455865494841421526e-01
1.455865494841421526e-01
1.581964081008788714e-01
1.581964081008788714e-01
1.513183034008406536e-01
1.513183034008406536e-01
1.513183034008406536e-01
1.260985861673672159e-01
1.260985861673672159e-01
1.295376385173863110e-01
1.295376385173863110e-01
1.295376385173863110e-01
1.513183034008406536e-01
1.513183034008406536e-01
1.341230416507451229e-01
1.341230416507451229e-01
1.341230416507451229e-01
1.215131830340084040e-01
1.215131830340084040e-01
1.517004203286205499e-01
1.517004203286205499e-01
1.517004203286205499e-01
1.238058846006878100e-01
1.238058846006878100e-01
1.497898356897210681e-01
1.497898356897210681e-01
1.497898356897210681e-01
1.222774168895682106e-01
1.222774168895682106e-01
1.165456629728696958e-01
1.165456629728696958e-01
1.165456629728696958e-01
1.429117309896828503e-01
1.429117309896828503e-01
1.310661062285059242e-01
1.310661062285059242e-01
1.310661062285059242e-01
1.452044325563622562e-01
1.452044325563622562e-01
1.253343523118074232e-01
1.253343523118074232e-01
1.253343523118074232e-01
1.253343523118074232e-01
1.253343523118074232e-01
1.127244936950706905e-01
1.127244936950706905e-01
1.127244936950706905e-01
1.138708444784103935e-01
1.138708444784103935e-01
1.383263278563240384e-01
1.383263278563240384e-01
1.383263278563240384e-01
1.314482231562858205e-01
1.314482231562858205e-01
1.123423767672907941e-01
1.123423767672907941e-01
1.123423767672907941e-01
1.413832632785632371e-01
1.413832632785632371e-01
1.153993121895299928e-01
1.153993121895299928e-01
1.153993121895299928e-01
1.337409247229652265e-01
1.337409247229652265e-01
1.081390905617118786e-01
1.081390905617118786e-01
1.081390905617118786e-01
1.146350783339702001e-01
1.146350783339702001e-01
1.150171952617500964e-01
1.150171952617500964e-01
1.150171952617500964e-01
1.260985861673672159e-01
1.260985861673672159e-01
1.104317921283912846e-01
1.104317921283912846e-01
1.104317921283912846e-01
1.249522353840275130e-01
1.249522353840275130e-01
1.218952999617883004e-01
1.218952999617883004e-01
1.218952999617883004e-01
1.180741306839892951e-01
1.180741306839892951e-01
1.383263278563240384e-01
1.383263278563240384e-01
1.383263278563240384e-01
1.047000382116927836e-01
1.047000382116927836e-01
1.176920137562093988e-01
1.176920137562093988e-01
1.176920137562093988e-01
1.314482231562858205e-01
1.314482231562858205e-01
1.085212074894917889e-01
1.085212074894917889e-01
1.085212074894917889e-01
1.020252197172334674e-01
1.020252197172334674e-01
1.077569736339319822e-01
1.077569736339319822e-01
1.077569736339319822e-01
1.104317921283912846e-01
1.104317921283912846e-01
1.085212074894917889e-01
1.085212074894917889e-01
1.085212074894917889e-01
1.245701184562476166e-01
1.245701184562476166e-01
1.069927397783721756e-01
1.069927397783721756e-01
1.069927397783721756e-01
1.268628200229270087e-01
1.268628200229270087e-01
1.272449369507069050e-01
1.272449369507069050e-01
1.272449369507069050e-01
1.241880015284677063e-01
1.241880015284677063e-01
9.935040122277416508e-02
9.935040122277416508e-02
9.935040122277416508e-02
1.096675582728314918e-01
1.096675582728314918e-01
9.935040122277416508e-02
9.935040122277416508e-02
9.935040122277416508e-02
1.035536874283530806e-01
1.035536874283530806e-01
1.268628200229270087e-01
1.268628200229270087e-01
1.268628200229270087e-01
9.743981658387466938e-02
9.743981658387466938e-02
9.705769965609475913e-02
9.705769965609475913e-02
1.249522353840275130e-01
1.249522353840275130e-01
1.249522353840275130e-01
1.234237676729079136e-01
1.234237676729079136e-01
1.024073366450133776e-01
1.024073366450133776e-01
1.024073366450133776e-01
1.047000382116927836e-01
1.047000382116927836e-01
9.400076423385556046e-02
9.400076423385556046e-02
9.400076423385556046e-02
1.150171952617500964e-01
1.150171952617500964e-01
1.226595338173481070e-01
1.226595338173481070e-01
1.226595338173481070e-01
9.782193351165456574e-02
9.782193351165456574e-02
1.004967520061138680e-01
1.004967520061138680e-01
1.004967520061138680e-01
1.008788689338937783e-01
1.008788689338937783e-01
9.973251815055407532e-02
9.973251815055407532e-02
9.973251815055407532e-02
1.115781429117309875e-01
1.115781429117309875e-01
9.209017959495605088e-02
9.209017959495605088e-02
9.209017959495605088e-02
9.132594573939625815e-02
9.132594573939625815e-02
9.820405043943446211e-02
9.820405043943446211e-02
9.820405043943446211e-02
1.077569736339319822e-01
1.077569736339319822e-01
1.077569736339319822e-01
1.077569736339319822e-01
1.077569736339319822e-01
1.196025983951089083e-01
1.196025983951089083e-01
1.176920137562093988e-01
1.176920137562093988e-01
1.176920137562093988e-01
1.008788689338937783e-01
1.008788689338937783e-01
9.323653037829575385e-02
9.323653037829575385e-02
9.323653037829575385e-02
1.058463889950324865e-01
1.058463889950324865e-01
8.559419182269774329e-02
8.559419182269774329e-02
8.559419182269774329e-02
1.119602598395108839e-01
1.119602598395108839e-01
1.123423767672907941e-01
1.123423767672907941e-01
1.123423767672907941e-01
1.108139090561711948e-01
1.108139090561711948e-01
8.865112724493695584e-02
8.865112724493695584e-02
8.865112724493695584e-02
1.069927397783721756e-01
1.069927397783721756e-01
9.323653037829575385e-02
9.323653037829575385e-02
9.323653037829575385e-02
9.132594573939625815e-02
9.132594573939625815e-02
1.108139090561711948e-01
1.108139090561711948e-01
1.108139090561711948e-01
8.062667176155903503e-02
8.062667176155903503e-02
1.077569736339319822e-01
1.077569736339319822e-01
1.077569736339319822e-01
9.629346580053496640e-02
9.629346580053496640e-02
8.215513947267863437e-02
8.215513947267863437e-02
8.215513947267863437e-02
8.062667176155903503e-02
8.062667176155903503e-02
1.092854413450515816e-01
1.092854413450515816e-01
1.092854413450515816e-01
1.096675582728314918e-01
1.096675582728314918e-01
1.119602598395108839e-01
1.119602598395108839e-01
1.119602598395108839e-01
9.476499808941536707e-02
9.476499808941536707e-02
1.092854413450515816e-01
1.092854413450515816e-01
1.092854413450515816e-01
1.184562476117692054e-01
1.184562476117692054e-01
9.591134887275505616e-02
9.591134887275505616e-02
9.591134887275505616e-02
1.176920137562093988e-01
1.176920137562093988e-01
9.858616736721437235e-02
9.858616736721437235e-02
9.858616736721437235e-02
1.253343523118074232e-01
1.253343523118074232e-01
1.146350783339702001e-01
1.146350783339702001e-01
1.146350783339702001e-01
1.180741306839892951e-01
1.180741306839892951e-01
1.192204814673289981e-01
1.192204814673289981e-01
1.192204814673289981e-01
1.413832632785632371e-01
1.413832632785632371e-01
1.474971341230416622e-01
1.474971341230416622e-01
1.474971341230416622e-01
1.367978601452044252e-01
1.367978601452044252e-01
1.620175773786778628e-01
1.620175773786778628e-01
1.620175773786778628e-01
1.654566297286969856e-01
1.654566297286969856e-01
1.857088269010317150e-01
1.857088269010317150e-01
1.857088269010317150e-01
1.746274359954146094e-01
1.746274359954146094e-01
2.105464272067252562e-01
