2.116927779900649731e-01
2.277416889568207869e-01
2.277416889568207869e-01
2.296522735957202965e-01
2.296522735957202965e-01
2.296522735957202965e-01
2.029040886511272457e-01
2.029040886511272457e-01
2.197172334734428800e-01
2.197172334734428800e-01
2.197172334734428800e-01
2.040504394344669348e-01
2.040504394344669348e-01
2.032862055789071420e-01
2.032862055789071420e-01
2.032862055789071420e-01
1.971723347344287447e-01
1.971723347344287447e-01
2.059610240733664444e-01
2.059610240733664444e-01
2.059610240733664444e-01
2.269774551012609942e-01
2.269774551012609942e-01
1.983186855177684338e-01
1.983186855177684338e-01
1.983186855177684338e-01
2.017577378677875566e-01
2.017577378677875566e-01
1.971723347344287447e-01
1.971723347344287447e-01
1.971723347344287447e-01
1.964081008788689242e-01
1.964081008788689242e-01
1.983186855177684338e-01
1.983186855177684338e-01
1.983186855177684338e-01
1.960259839510890278e-01
1.960259839510890278e-01
2.227741688956820787e-01
2.227741688956820787e-01
2.227741688956820787e-01
2.013756209400076325e-01
2.013756209400076325e-01
1.933511654566297255e-01
1.933511654566297255e-01
1.933511654566297255e-01
2.166602980512036813e-01
2.166602980512036813e-01
1.979365685899885374e-01
1.979365685899885374e-01
1.979365685899885374e-01
1.872372946121513282e-01
1.872372946121513282e-01
1.990829193733282265e-01
1.990829193733282265e-01
1.990829193733282265e-01
2.101643102789453599e-01
2.101643102789453599e-01
1.975544516622086411e-01
1.975544516622086411e-01
1.975544516622086411e-01
1.902942300343905269e-01
1.902942300343905269e-01
2.067252579289262648e-01
2.067252579289262648e-01
2.067252579289262648e-01
1.987008024455483302e-01
1.987008024455483302e-01
1.780664883454337044e-01
1.780664883454337044e-01
1.780664883454337044e-01
1.834161253343523090e-01
1.834161253343523090e-01
1.822697745510126199e-01
1.822697745510126199e-01
1.822697745510126199e-01
1.837982422621322054e-01
1.837982422621322054e-01
1.899121131066106305e-01
1.899121131066106305e-01
1.899121131066106305e-01
1.742453190676346853e-01
1.742453190676346853e-01
1.742453190676346853e-01
1.742453190676346853e-01
1.742453190676346853e-01
1.723347344287352034e-01
1.723347344287352034e-01
1.723347344287352034e-01
1.723347344287352034e-01
1.723347344287352034e-01
1.849445930454719222e-01
1.849445930454719222e-01
1.925869316010699328e-01
1.925869316010699328e-01
1.925869316010699328e-01
1.941153993121895183e-01
1.941153993121895183e-01
1.895299961788307341e-01
1.895299961788307341e-01
1.895299961788307341e-01
1.711883836453954866e-01
1.711883836453954866e-01
1.834161253343523090e-01
1.834161253343523090e-01
1.834161253343523090e-01
1.750095529231945057e-01
1.750095529231945057e-01
1.581964081008788714e-01
1.581964081008788714e-01
1.581964081008788714e-01
1.559037065341994654e-01
1.559037065341994654e-01
1.578142911730989750e-01
1.578142911730989750e-01
1.578142911730989750e-01
1.792128391287733935e-01
1.792128391287733935e-01
1.566679403897592582e-01
1.566679403897592582e-01
1.566679403897592582e-01
1.536110049675200595e-01
1.536110049675200595e-01
1.688956820787160806e-01
1.688956820787160806e-01
1.688956820787160806e-01
1.635460450897974760e-01
1.635460450897974760e-01
1.784486052732136008e-01
1.784486052732136008e-01
1.784486052732136008e-01
1.753916698509744021e-01
1.753916698509744021e-01
1.734810852120748925e-01
1.734810852120748925e-01
1.734810852120748925e-01
1.543752388230798522e-01
1.543752388230798522e-01
1.536110049675200595e-01
1.536110049675200595e-01
1.536110049675200595e-01
1.650745128009170892e-01
1.650745128009170892e-01
1.696599159342759011e-01
1.696599159342759011e-01
1.696599159342759011e-01
1.478792510508215585e-01
1.478792510508215585e-01
1.517004203286205499e-01
1.517004203286205499e-01
1.517004203286205499e-01
1.746274359954146094e-01
1.746274359954146094e-01
1.517004203286205499e-01
1.517004203286205499e-01
1.517004203286205499e-01
1.631639281620175796e-01
1.631639281620175796e-01
1.478792510508215585e-01
1.478792510508215585e-01
1.478792510508215585e-01
1.532288880397401631e-01
1.532288880397401631e-01
1.574321742453190787e-01
1.574321742453190787e-01
1.574321742453190787e-01
1.440580817730225394e-01
1.440580817730225394e-01
1.711883836453954866e-01
1.711883836453954866e-01
1.711883836453954866e-01
1.440580817730225394e-01
1.440580817730225394e-01
1.429117309896828503e-01
1.429117309896828503e-01
1.429117309896828503e-01
1.669850974398165711e-01
1.669850974398165711e-01
1.390905617118838311e-01
1.390905617118838311e-01
1.390905617118838311e-01
1.482613679786014549e-01
1.482613679786014549e-01
1.497898356897210681e-01
1.497898356897210681e-01
1.497898356897210681e-01
1.543752388230798522e-01
1.543752388230798522e-01
1.360336262896446324e-01
1.360336262896446324e-01
1.360336262896446324e-01
1.623996943064577869e-01
1.623996943064577869e-01
1.517004203286205499e-01
1.517004203286205499e-01
1.517004203286205499e-01
1.501719526175009645e-01
1.501719526175009645e-01
1.528467711119602668e-01
1.528467711119602668e-01
1.528467711119602668e-01
1.559037065341994654e-01
1.559037065341994654e-01
1.593427588842185605e-01
1.593427588842185605e-01
1.593427588842185605e-01
1.562858234619793618e-01
1.562858234619793618e-01
1.402369124952235480e-01
1.402369124952235480e-01
1.581964081008788714e-01
1.581964081008788714e-01
1.581964081008788714e-01
1.471150171952617380e-01
1.471150171952617380e-01
1.585785250286587678e-01
1.585785250286587678e-01
1.585785250286587678e-01
1.490256018341612476e-01
1.490256018341612476e-01
1.562858234619793618e-01
1.562858234619793618e-01
1.562858234619793618e-01
1.410011463507833407e-01
1.410011463507833407e-01
1.452044325563622562e-01
1.452044325563622562e-01
1.452044325563622562e-01
1.539931218952999559e-01
1.539931218952999559e-01
1.260985861673672159e-01
1.260985861673672159e-01
1.260985861673672159e-01
1.218952999617883004e-01
1.218952999617883004e-01
1.421474971341230298e-01
1.421474971341230298e-01
1.421474971341230298e-01
1.410011463507833407e-01
1.410011463507833407e-01
1.471150171952617380e-01
1.471150171952617380e-01
1.471150171952617380e-01
1.245701184562476166e-01
1.245701184562476166e-01
1.509361864730607572e-01
1.509361864730607572e-01
1.509361864730607572e-01
1.364157432174245288e-01
1.364157432174245288e-01
1.402369124952235480e-01
1.402369124952235480e-01
1.402369124952235480e-01
1.310661062285059242e-01
1.310661062285059242e-01
1.459686664119220489e-01
1.459686664119220489e-01
1.459686664119220489e-01
1.161635460450897994e-01
1.161635460450897994e-01
1.180741306839892951e-01
1.180741306839892951e-01
1.180741306839892951e-01
1.169277799006495921e-01
1.169277799006495921e-01
1.146350783339702001e-01
1.146350783339702001e-01
1.146350783339702001e-01
1.218952999617883004e-01
1.218952999617883004e-01
1.264807030951471123e-01
1.264807030951471123e-01
1.264807030951471123e-01
1.421474971341230298e-01
1.421474971341230298e-01
1.173098968284295024e-01
1.173098968284295024e-01
1.173098968284295024e-01
1.379442109285441420e-01
1.379442109285441420e-01
1.138708444784103935e-01
1.138708444784103935e-01
1.138708444784103935e-01
1.199847153228888047e-01
1.199847153228888047e-01
1.127244936950706905e-01
1.127244936950706905e-01
1.127244936950706905e-01
1.348872755063049156e-01
1.348872755063049156e-01
1.257164692395873196e-01
1.257164692395873196e-01
1.257164692395873196e-01
1.283912877340466219e-01
1.283912877340466219e-01
1.260985861673672159e-01
1.260985861673672159e-01
1.260985861673672159e-01
1.096675582728314918e-01
1.096675582728314918e-01
1.127244936950706905e-01
1.127244936950706905e-01
1.127244936950706905e-01
1.402369124952235480e-01
1.402369124952235480e-01
1.345051585785250192e-01
1.345051585785250192e-01
1.345051585785250192e-01
1.157814291173099031e-01
1.157814291173099031e-01
1.173098968284295024e-01
1.173098968284295024e-01
1.173098968284295024e-01
1.429117309896828503e-01
1.429117309896828503e-01
1.230416507451280034e-01
1.230416507451280034e-01
1.230416507451280034e-01
1.104317921283912846e-01
1.104317921283912846e-01
1.226595338173481070e-01
1.226595338173481070e-01
1.226595338173481070e-01
1.226595338173481070e-01
1.226595338173481070e-01
1.089033244172716852e-01
1.089033244172716852e-01
1.089033244172716852e-01
1.092854413450515816e-01
1.092854413450515816e-01
1.108139090561711948e-01
1.108139090561711948e-01
1.108139090561711948e-01
1.287734046618265182e-01
1.287734046618265182e-01
1.360336262896446324e-01
1.360336262896446324e-01
1.360336262896446324e-01
1.310661062285059242e-01
1.310661062285059242e-01
1.096675582728314918e-01
1.096675582728314918e-01
1.096675582728314918e-01
1.115781429117309875e-01
1.115781429117309875e-01
1.165456629728696958e-01
1.165456629728696958e-01
1.165456629728696958e-01
1.123423767672907941e-01
1.123423767672907941e-01
1.238058846006878100e-01
1.238058846006878100e-01
1.238058846006878100e-01
1.176920137562093988e-01
1.176920137562093988e-01
1.196025983951089083e-01
1.196025983951089083e-01
1.196025983951089083e-01
1.322124570118456133e-01
1.322124570118456133e-01
1.196025983951089083e-01
1.196025983951089083e-01
1.196025983951089083e-01
1.310661062285059242e-01
1.310661062285059242e-01
1.077569736339319822e-01
1.077569736339319822e-01
1.077569736339319822e-01
1.245701184562476166e-01
1.245701184562476166e-01
1.047000382116927836e-01
1.047000382116927836e-01
1.047000382116927836e-01
1.127244936950706905e-01
1.127244936950706905e-01
1.299197554451662073e-01
1.299197554451662073e-01
1.299197554451662073e-01
1.012609858616736747e-01
1.012609858616736747e-01
1.222774168895682106e-01
1.222774168895682106e-01
1.222774168895682106e-01
1.047000382116927836e-01
1.047000382116927836e-01
1.260985861673672159e-01
1.260985861673672159e-01
1.260985861673672159e-01
1.012609858616736747e-01
1.012609858616736747e-01
9.935040122277416508e-02
9.935040122277416508e-02
9.935040122277416508e-02
1.291555215896064146e-01
1.291555215896064146e-01
1.253343523118074232e-01
1.253343523118074232e-01
1.253343523118074232e-01
1.241880015284677063e-01
1.241880015284677063e-01
1.272449369507069050e-01
1.272449369507069050e-01
1.272449369507069050e-01
1.253343523118074232e-01
1.253343523118074232e-01
1.024073366450133776e-01
1.024073366450133776e-01
1.024073366450133776e-01
1.230416507451280034e-01
1.230416507451280034e-01
1.069927397783721756e-01
1.069927397783721756e-01
1.257164692395873196e-01
1.257164692395873196e-01
1.257164692395873196e-01
9.591134887275505616e-02
9.591134887275505616e-02
1.272449369507069050e-01
1.272449369507069050e-01
1.272449369507069050e-01
1.199847153228888047e-01
1.199847153228888047e-01
1.024073366450133776e-01
1.024073366450133776e-01
1.024073366450133776e-01
1.104317921283912846e-01
1.104317921283912846e-01
9.552923194497515980e-02
9.552923194497515980e-02
9.552923194497515980e-02
1.184562476117692054e-01
1.184562476117692054e-01
1.035536874283530806e-01
1.035536874283530806e-01
1.035536874283530806e-01
9.782193351165456574e-02
9.782193351165456574e-02
1.001146350783339717e-01
1.001146350783339717e-01
1.001146350783339717e-01
1.058463889950324865e-01
1.058463889950324865e-01
1.157814291173099031e-01
1.157814291173099031e-01
1.157814291173099031e-01
9.743981658387466938e-02
9.743981658387466938e-02
1.180741306839892951e-01
1.180741306839892951e-01
1.180741306839892951e-01
9.743981658387466938e-02
9.743981658387466938e-02
1.012609858616736747e-01
1.012609858616736747e-01
1.012609858616736747e-01
1.203668322506687011e-01
1.203668322506687011e-01
1.199847153228888047e-01
1.199847153228888047e-01
1.199847153228888047e-01
1.218952999617883004e-01
1.218952999617883004e-01
1.203668322506687011e-01
1.203668322506687011e-01
1.203668322506687011e-01
1.218952999617883004e-01
1.218952999617883004e-01
1.207489491784486113e-01
1.207489491784486113e-01
1.207489491784486113e-01
1.222774168895682106e-01
1.222774168895682106e-01
1.153993121895299928e-01
1.153993121895299928e-01
1.153993121895299928e-01
1.066106228505922793e-01
1.066106228505922793e-01
1.047000382116927836e-01
1.047000382116927836e-01
1.047000382116927836e-01
1.050821551394726799e-01
1.050821551394726799e-01
1.027894535727932740e-01
1.027894535727932740e-01
1.027894535727932740e-01
1.085212074894917889e-01
1.085212074894917889e-01
9.973251815055407532e-02
9.973251815055407532e-02
9.973251815055407532e-02
9.667558272831486277e-02
9.667558272831486277e-02
1.016431027894535710e-01
1.016431027894535710e-01
1.016431027894535710e-01
1.077569736339319822e-01
1.077569736339319822e-01
1.108139090561711948e-01
1.108139090561711948e-01
1.108139090561711948e-01
1.176920137562093988e-01
1.176920137562093988e-01
1.035536874283530806e-01
1.035536874283530806e-01
1.035536874283530806e-01
1.043179212839128733e-01
1.043179212839128733e-01
9.323653037829575385e-02
9.323653037829575385e-02
9.323653037829575385e-02
9.247229652273596112e-02
9.247229652273596112e-02
1.001146350783339717e-01
1.001146350783339717e-01
1.001146350783339717e-01
9.247229652273596112e-02
9.247229652273596112e-02
1.031715705005731704e-01
1.031715705005731704e-01
1.031715705005731704e-01
1.016431027894535710e-01
1.016431027894535710e-01
9.476499808941536707e-02
9.476499808941536707e-02
9.476499808941536707e-02
1.069927397783721756e-01
1.069927397783721756e-01
1.020252197172334674e-01
1.020252197172334674e-01
1.020252197172334674e-01
1.081390905617118786e-01
1.081390905617118786e-01
1.123423767672907941e-01
1.123423767672907941e-01
1.123423767672907941e-01
1.180741306839892951e-01
1.180741306839892951e-01
9.858616736721437235e-02
9.858616736721437235e-02
9.858616736721437235e-02
9.400076423385556046e-02
9.400076423385556046e-02
9.285441345051585749e-02
9.285441345051585749e-02
9.285441345051585749e-02
1.085212074894917889e-01
1.085212074894917889e-01
1.196025983951089083e-01
1.196025983951089083e-01
1.196025983951089083e-01
8.865112724493695584e-02
8.865112724493695584e-02
1.165456629728696958e-01
1.165456629728696958e-01
1.165456629728696958e-01
1.180741306839892951e-01
1.180741306839892951e-01
8.674054260603744626e-02
8.674054260603744626e-02
8.674054260603744626e-02
8.903324417271685220e-02
8.903324417271685220e-02
9.858616736721437235e-02
9.858616736721437235e-02
9.858616736721437235e-02
9.514711501719526343e-02
9.514711501719526343e-02
1.123423767672907941e-01
1.123423767672907941e-01
1.123423767672907941e-01
9.056171188383645154e-02
9.056171188383645154e-02
1.012609858616736747e-01
1.012609858616736747e-01
1.012609858616736747e-01
8.979747802827665881e-02
8.979747802827665881e-02
9.667558272831486277e-02
9.667558272831486277e-02
9.667558272831486277e-02
1.104317921283912846e-01
1.104317921283912846e-01
8.750477646159725287e-02
8.750477646159725287e-02
8.750477646159725287e-02
8.368360718379824759e-02
8.368360718379824759e-02
8.826901031715704560e-02
8.826901031715704560e-02
8.826901031715704560e-02
1.111960259839510912e-01
1.111960259839510912e-01
8.330149025601833734e-02
8.330149025601833734e-02
8.330149025601833734e-02
8.674054260603744626e-02
8.674054260603744626e-02
8.712265953381734263e-02
8.712265953381734263e-02
8.712265953381734263e-02
1.024073366450133776e-01
1.024073366450133776e-01
8.139090561711884164e-02
8.139090561711884164e-02
8.139090561711884164e-02
9.552923194497515980e-02
9.552923194497515980e-02
1.004967520061138680e-01
1.004967520061138680e-01
1.004967520061138680e-01
8.597630875047763965e-02
8.597630875047763965e-02
9.400076423385556046e-02
9.400076423385556046e-02
1.142529614061902898e-01
1.142529614061902898e-01
1.142529614061902898e-01
8.788689338937714923e-02
8.788689338937714923e-02
8.482995796713795056e-02
8.482995796713795056e-02
8.482995796713795056e-02
1.058463889950324865e-01
1.058463889950324865e-01
1.012609858616736747e-01
1.012609858616736747e-01
1.012609858616736747e-01
9.743981658387466938e-02
9.743981658387466938e-02
9.056171188383645154e-02
9.056171188383645154e-02
9.056171188383645154e-02
8.674054260603744626e-02
8.674054260603744626e-02
1.157814291173099031e-01
1.157814291173099031e-01
1.157814291173099031e-01
1.069927397783721756e-01
1.069927397783721756e-01
1.004967520061138680e-01
1.004967520061138680e-01
1.004967520061138680e-01
1.146350783339702001e-01
1.146350783339702001e-01
1.058463889950324865e-01
1.058463889950324865e-01
1.058463889950324865e-01
1.020252197172334674e-01
1.020252197172334674e-01
1.203668322506687011e-01
1.203668322506687011e-01
1.203668322506687011e-01
1.035536874283530806e-01
1.035536874283530806e-01
9.973251815055407532e-02
9.973251815055407532e-02
9.973251815055407532e-02
8.788689338937714923e-02
8.788689338937714923e-02
8.788689338937714923e-02
8.788689338937714923e-02
8.788689338937714923e-02
8.674054260603744626e-02
8.674054260603744626e-02
1.100496752006113882e-01
1.100496752006113882e-01
1.100496752006113882e-01
9.247229652273596112e-02
9.247229652273596112e-02
9.782193351165456574e-02
9.782193351165456574e-02
9.782193351165456574e-02
9.361864730607566409e-02
9.361864730607566409e-02
1.062285059228123829e-01
1.062285059228123829e-01
1.062285059228123829e-01
1.165456629728696958e-01
1.165456629728696958e-01
9.132594573939625815e-02
9.132594573939625815e-02
9.132594573939625815e-02
1.146350783339702001e-01
1.146350783339702001e-01
1.131066106228505869e-01
1.131066106228505869e-01
1.131066106228505869e-01
1.096675582728314918e-01
1.096675582728314918e-01
9.094382881161634791e-02
9.094382881161634791e-02
9.094382881161634791e-02
9.629346580053496640e-02
9.629346580053496640e-02
9.247229652273596112e-02
9.247229652273596112e-02
9.247229652273596112e-02
9.094382881161634791e-02
9.094382881161634791e-02
9.782193351165456574e-02
9.782193351165456574e-02
9.782193351165456574e-02
9.935040122277416508e-02
9.935040122277416508e-02
1.077569736339319822e-01
1.077569736339319822e-01
1.077569736339319822e-01
1.188383645395491017e-01
1.188383645395491017e-01
1.085212074894917889e-01
1.085212074894917889e-01
1.085212074894917889e-01
1.127244936950706905e-01
1.127244936950706905e-01
1.054642720672525763e-01
1.054642720672525763e-01
1.054642720672525763e-01
1.153993121895299928e-01
1.153993121895299928e-01
1.192204814673289981e-01
1.192204814673289981e-01
1.192204814673289981e-01
1.173098968284295024e-01
1.173098968284295024e-01
1.161635460450897994e-01
1.161635460450897994e-01
1.161635460450897994e-01
1.085212074894917889e-01
1.085212074894917889e-01
1.081390905617118786e-01
1.081390905617118786e-01
1.081390905617118786e-01
1.031715705005731704e-01
1.031715705005731704e-01
1.108139090561711948e-01
1.108139090561711948e-01
1.108139090561711948e-01
9.209017959495605088e-02
9.209017959495605088e-02
1.134887275506304971e-01
1.134887275506304971e-01
1.134887275506304971e-01
1.138708444784103935e-01
1.138708444784103935e-01
9.743981658387466938e-02
9.743981658387466938e-02
9.743981658387466938e-02
1.058463889950324865e-01
1.058463889950324865e-01
1.043179212839128733e-01
1.043179212839128733e-01
1.043179212839128733e-01
1.260985861673672159e-01
1.260985861673672159e-01
1.092854413450515816e-01
1.092854413450515816e-01
1.092854413450515816e-01
1.410011463507833407e-01
1.410011463507833407e-01
1.196025983951089083e-01
1.196025983951089083e-01
1.196025983951089083e-01
1.268628200229270087e-01
1.268628200229270087e-01
1.520825372564004463e-01
1.520825372564004463e-01
1.520825372564004463e-01
1.486434849063813513e-01
1.486434849063813513e-01
1.410011463507833407e-01
1.410011463507833407e-01
1.410011463507833407e-01
1.581964081008788714e-01
1.581964081008788714e-01
1.761559037065341948e-01
1.761559037065341948e-01
1.761559037065341948e-01
1.562858234619793618e-01
1.562858234619793618e-01
1.746274359954146094e-01
1.746274359954146094e-01
1.746274359954146094e-01
1.941153993121895183e-01
1.941153993121895183e-01
1.780664883454337044e-01
1.780664883454337044e-01
1.780664883454337044e-01
2.097821933511654635e-01
2.097821933511654635e-01
1.853267099732518186e-01
1.853267099732518186e-01
1.853267099732518186e-01
2.013756209400076325e-01
2.013756209400076325e-01
2.265953381734810979e-01
2.265953381734810979e-01
2.265953381734810979e-01
2.353840275124187975e-01
2.353840275124187975e-01
2.170424149789835777e-01
2.170424149789835777e-01
2.170424149789835777e-01
2.422621322124570153e-01
2.422621322124570153e-01
2.269774551012609942e-01
2.269774551012609942e-01
2.269774551012609942e-01
2.372946121513183071e-01
2.372946121513183071e-01
2.411157814291172985e-01
2.411157814291172985e-01
2.411157814291172985e-01
2.693924340848299348e-01
2.693924340848299348e-01
2.709209017959495758e-01
2.709209017959495758e-01
2.709209017959495758e-01
2.781811234237676622e-01
2.781811234237676622e-01
2.533435231180741209e-01
2.533435231180741209e-01
2.560183416125334510e-01
2.560183416125334510e-01
2.560183416125334510e-01
2.613679786014520556e-01
2.613679786014520556e-01
2.816201757737867850e-01
2.816201757737867850e-01
2.816201757737867850e-01
2.927015666794038906e-01
2.927015666794038906e-01
2.839128773404661632e-01
2.839128773404661632e-01
2.839128773404661632e-01
2.728314864348490576e-01
2.728314864348490576e-01
2.747420710737485394e-01
2.747420710737485394e-01
2.747420710737485394e-01
2.888803974016048715e-01
2.888803974016048715e-01
3.106610622850592418e-01
3.106610622850592418e-01
3.106610622850592418e-01
3.076041268628200154e-01
3.076041268628200154e-01
2.888803974016048715e-01
2.888803974016048715e-01
2.888803974016048715e-01
3.125716469239587236e-01
3.125716469239587236e-01
3.144822315628582610e-01
3.144822315628582610e-01
3.144822315628582610e-01
3.163928162017577428e-01
3.163928162017577428e-01
3.144822315628582610e-01
3.144822315628582610e-01
3.144822315628582610e-01
3.247993886129155738e-01
3.247993886129155738e-01
3.240351547573557256e-01
3.240351547573557256e-01
3.240351547573557256e-01
3.064577760794803263e-01
3.064577760794803263e-01
3.205961024073366583e-01
3.205961024073366583e-01
3.205961024073366583e-01
3.018723729461215144e-01
3.018723729461215144e-01
3.137179977072984127e-01
3.137179977072984127e-01
3.137179977072984127e-01
2.995796713794421362e-01
2.995796713794421362e-01
2.995796713794421362e-01
2.995796713794421362e-01
2.995796713794421362e-01
3.213603362628964510e-01
3.213603362628964510e-01
3.087504776461597045e-01
3.087504776461597045e-01
3.087504776461597045e-01
3.270920901795949520e-01
3.270920901795949520e-01
3.076041268628200154e-01
3.076041268628200154e-01
3.076041268628200154e-01
3.022544898739014108e-01
3.022544898739014108e-01
3.293847917462743857e-01
3.293847917462743857e-01
3.293847917462743857e-01
3.106610622850592418e-01
3.106610622850592418e-01
3.072220099350401190e-01
3.072220099350401190e-01
3.072220099350401190e-01
3.259457393962552629e-01
3.259457393962552629e-01
3.282384409629346411e-01
3.282384409629346411e-01
3.282384409629346411e-01
3.324417271685135566e-01
3.324417271685135566e-01
3.171570500573175355e-01
3.171570500573175355e-01
3.171570500573175355e-01
3.377913641574321613e-01
3.377913641574321613e-01
3.133358807795185164e-01
3.133358807795185164e-01
3.133358807795185164e-01
3.247993886129155738e-01
3.247993886129155738e-01
3.129537638517386200e-01
3.129537638517386200e-01
3.129537638517386200e-01
3.167749331295376392e-01
3.167749331295376392e-01
3.351165456629728867e-01
3.351165456629728867e-01
3.351165456629728867e-01
3.198318685517768656e-01
3.198318685517768656e-01
3.240351547573557256e-01
3.240351547573557256e-01
3.240351547573557256e-01
3.320596102407336603e-01
3.320596102407336603e-01
3.385555980129919540e-01
3.385555980129919540e-01
3.385555980129919540e-01
3.370271303018723685e-01
3.370271303018723685e-01
3.198318685517768656e-01
3.198318685517768656e-01
3.198318685517768656e-01
3.427588842185708695e-01
3.427588842185708695e-01
3.297669086740542821e-01
3.297669086740542821e-01
3.297669086740542821e-01
3.385555980129919540e-01
3.385555980129919540e-01
3.473442873519296814e-01
3.473442873519296814e-01
3.473442873519296814e-01
3.148643484906381573e-01
3.148643484906381573e-01
3.305311425296140748e-01
3.305311425296140748e-01
3.305311425296140748e-01
3.419946503630110768e-01
3.419946503630110768e-01
3.454337027130301996e-01
3.454337027130301996e-01
3.454337027130301996e-01
3.446694688574704069e-01
3.446694688574704069e-01
3.194497516239969692e-01
3.194497516239969692e-01
3.194497516239969692e-01
3.370271303018723685e-01
3.370271303018723685e-01
3.419946503630110768e-01
3.419946503630110768e-01
3.419946503630110768e-01
3.244172716851356775e-01
3.244172716851356775e-01
3.190676346962170173e-01
3.190676346962170173e-01
3.190676346962170173e-01
3.454337027130301996e-01
3.454337027130301996e-01
3.374092472296522649e-01
3.374092472296522649e-01
3.374092472296522649e-01
3.435231180741306622e-01
3.435231180741306622e-01
3.209782193351165547e-01
3.209782193351165547e-01
3.209782193351165547e-01
3.194497516239969692e-01
3.194497516239969692e-01
3.171570500573175355e-01
3.171570500573175355e-01
3.171570500573175355e-01
3.332059610240733494e-01
3.332059610240733494e-01
3.236530378295758292e-01
3.236530378295758292e-01
3.236530378295758292e-01
3.404661826518914913e-01
3.404661826518914913e-01
3.320596102407336603e-01
3.320596102407336603e-01
3.320596102407336603e-01
3.408482995796713877e-01
3.408482995796713877e-01
3.389377149407718504e-01
3.389377149407718504e-01
3.389377149407718504e-01
3.144822315628582610e-01
3.144822315628582610e-01
3.106610622850592418e-01
3.106610622850592418e-01
3.106610622850592418e-01
3.183034008406572246e-01
3.183034008406572246e-01
3.110431792128391382e-01
3.110431792128391382e-01
3.110431792128391382e-01
3.221245701184562438e-01
3.221245701184562438e-01
3.144822315628582610e-01
3.144822315628582610e-01
3.144822315628582610e-01
2.984333205961023916e-01
2.984333205961023916e-01
3.003439052350019289e-01
3.003439052350019289e-01
3.148643484906381573e-01
3.148643484906381573e-01
3.148643484906381573e-01
3.205961024073366583e-01
3.205961024073366583e-01
3.102789453572793454e-01
3.102789453572793454e-01
3.102789453572793454e-01
3.137179977072984127e-01
3.137179977072984127e-01
3.106610622850592418e-01
3.106610622850592418e-01
3.106610622850592418e-01
2.816201757737867850e-01
2.816201757737867850e-01
3.030187237294612035e-01
3.030187237294612035e-01
3.030187237294612035e-01
2.816201757737867850e-01
2.816201757737867850e-01
3.030187237294612035e-01
3.030187237294612035e-01
3.030187237294612035e-01
2.946121513183034279e-01
2.946121513183034279e-01
2.701566679403897830e-01
2.701566679403897830e-01
2.701566679403897830e-01
2.747420710737485394e-01
2.747420710737485394e-01
2.900267481849446161e-01
2.900267481849446161e-01
2.900267481849446161e-01
2.854413450515858042e-01
2.854413450515858042e-01
2.651891478792510748e-01
2.651891478792510748e-01
2.651891478792510748e-01
2.648070309514711229e-01
2.648070309514711229e-01
2.556362246847535546e-01
2.556362246847535546e-01
2.556362246847535546e-01
2.762705387848681804e-01
2.762705387848681804e-01
2.556362246847535546e-01
2.556362246847535546e-01
2.556362246847535546e-01
2.502865876958349500e-01
2.502865876958349500e-01
2.537256400458540173e-01
2.537256400458540173e-01
2.537256400458540173e-01
2.617500955292319520e-01
2.617500955292319520e-01
2.686282002292701421e-01
2.686282002292701421e-01
2.686282002292701421e-01
2.586931601069927256e-01
2.586931601069927256e-01
2.590752770347726219e-01
2.590752770347726219e-01
2.590752770347726219e-01
2.548719908291937064e-01
2.548719908291937064e-01
2.583110431792128292e-01
2.583110431792128292e-01
2.583110431792128292e-01
2.586931601069927256e-01
2.586931601069927256e-01
2.648070309514711229e-01
2.648070309514711229e-01
2.648070309514711229e-01
2.434084829957967044e-01
2.434084829957967044e-01
2.384409629346579962e-01
2.384409629346579962e-01
2.384409629346579962e-01
2.606037447458922629e-01
2.606037447458922629e-01
2.384409629346579962e-01
2.384409629346579962e-01
2.384409629346579962e-01
2.544898739014138100e-01
2.544898739014138100e-01
2.502865876958349500e-01
2.502865876958349500e-01
2.502865876958349500e-01
2.346197936568590048e-01
2.346197936568590048e-01
2.357661444401986939e-01
2.357661444401986939e-01
2.357661444401986939e-01
2.353840275124187975e-01
2.353840275124187975e-01
2.453190676346962140e-01
2.453190676346962140e-01
2.453190676346962140e-01
2.575468093236530365e-01
2.575468093236530365e-01
2.288880397401604760e-01
2.288880397401604760e-01
2.288880397401604760e-01
2.384409629346579962e-01
2.384409629346579962e-01
2.311807413068398820e-01
2.311807413068398820e-01
2.311807413068398820e-01
2.380588460068780998e-01
2.380588460068780998e-01
2.468475353458158272e-01
2.468475353458158272e-01
2.468475353458158272e-01
2.258311043179212774e-01
2.258311043179212774e-01
2.372946121513183071e-01
2.372946121513183071e-01
2.372946121513183071e-01
2.281238058846006833e-01
2.281238058846006833e-01
2.239205196790217678e-01
2.239205196790217678e-01
2.239205196790217678e-01
2.208635842567825691e-01
2.208635842567825691e-01
2.369124952235384107e-01
2.369124952235384107e-01
2.369124952235384107e-01
2.170424149789835777e-01
2.170424149789835777e-01
2.399694306457776094e-01
2.399694306457776094e-01
2.399694306457776094e-01
2.258311043179212774e-01
2.258311043179212774e-01
2.200993504012227764e-01
2.200993504012227764e-01
2.200993504012227764e-01
2.418800152846771190e-01
2.418800152846771190e-01
2.407336645013374021e-01
2.407336645013374021e-01
2.407336645013374021e-01
2.361482613679785902e-01
2.361482613679785902e-01
2.372946121513183071e-01
2.372946121513183071e-01
2.372946121513183071e-01
2.395873137179977130e-01
2.395873137179977130e-01
2.277416889568207869e-01
2.277416889568207869e-01
2.277416889568207869e-01
2.216278181123423896e-01
2.216278181123423896e-01
2.223920519679021823e-01
2.223920519679021823e-01
2.223920519679021823e-01
2.300343905235001929e-01
2.300343905235001929e-01
2.128391287734046622e-01
2.128391287734046622e-01
2.128391287734046622e-01
2.319449751623997025e-01
2.319449751623997025e-01
2.162781811234237572e-01
2.162781811234237572e-01
2.162781811234237572e-01
2.139854795567443513e-01
2.139854795567443513e-01
2.067252579289262648e-01
2.067252579289262648e-01
2.067252579289262648e-01
2.277416889568207869e-01
2.277416889568207869e-01
2.185708826901031632e-01
2.185708826901031632e-01
2.185708826901031632e-01
1.987008024455483302e-01
1.987008024455483302e-01
2.197172334734428800e-01
2.197172334734428800e-01
2.197172334734428800e-01
2.235384027512418714e-01
2.235384027512418714e-01
1.979365685899885374e-01
1.979365685899885374e-01
1.979365685899885374e-01
2.025219717233473493e-01
2.025219717233473493e-01
2.071073748567061612e-01
2.071073748567061612e-01
2.071073748567061612e-01
1.983186855177684338e-01
1.983186855177684338e-01
1.929690485288498292e-01
1.929690485288498292e-01
1.929690485288498292e-01
2.109285441345051526e-01
2.109285441345051526e-01
1.902942300343905269e-01
1.902942300343905269e-01
1.876194115399312246e-01
1.876194115399312246e-01
1.876194115399312246e-01
2.009935040122277361e-01
2.009935040122277361e-01
1.864730607565915077e-01
1.864730607565915077e-01
1.864730607565915077e-01
1.795949560565533176e-01
1.795949560565533176e-01
2.051967902178066516e-01
2.051967902178066516e-01
2.051967902178066516e-01
1.757737867787542985e-01
1.757737867787542985e-01
1.773022544898739117e-01
1.773022544898739117e-01
1.773022544898739117e-01
2.009935040122277361e-01
2.009935040122277361e-01
1.822697745510126199e-01
1.822697745510126199e-01
1.822697745510126199e-01
1.948796331677493388e-01
1.948796331677493388e-01
1.704241497898356938e-01
1.704241497898356938e-01
1.704241497898356938e-01
1.979365685899885374e-01
1.979365685899885374e-01
1.860909438288116113e-01
1.860909438288116113e-01
1.860909438288116113e-01
1.944975162399694424e-01
1.944975162399694424e-01
1.837982422621322054e-01
1.837982422621322054e-01
1.837982422621322054e-01
1.933511654566297255e-01
1.933511654566297255e-01
1.937332823844096219e-01
1.937332823844096219e-01
1.937332823844096219e-01
1.818876576232326958e-01
1.818876576232326958e-01
1.818876576232326958e-01
1.818876576232326958e-01
1.818876576232326958e-01
1.639281620175773724e-01
1.639281620175773724e-01
1.623996943064577869e-01
1.623996943064577869e-01
1.623996943064577869e-01
1.734810852120748925e-01
1.734810852120748925e-01
1.654566297286969856e-01
1.654566297286969856e-01
1.654566297286969856e-01
1.853267099732518186e-01
1.853267099732518186e-01
1.730989682842949962e-01
1.730989682842949962e-01
1.730989682842949962e-01
1.887657623232709136e-01
1.887657623232709136e-01
1.784486052732136008e-01
1.784486052732136008e-01
1.784486052732136008e-01
1.646923958731371929e-01
1.646923958731371929e-01
1.902942300343905269e-01
1.902942300343905269e-01
1.902942300343905269e-01
1.757737867787542985e-01
1.757737867787542985e-01
1.818876576232326958e-01
1.818876576232326958e-01
1.818876576232326958e-01
1.860909438288116113e-01
1.860909438288116113e-01
1.639281620175773724e-01
1.639281620175773724e-01
1.639281620175773724e-01
1.773022544898739117e-01
1.773022544898739117e-01
1.788307222009934971e-01
1.788307222009934971e-01
1.788307222009934971e-01
1.608712265953381737e-01
1.608712265953381737e-01
1.795949560565533176e-01
1.795949560565533176e-01
1.795949560565533176e-01
1.773022544898739117e-01
1.773022544898739117e-01
1.776843714176538080e-01
1.776843714176538080e-01
1.776843714176538080e-01
1.666029805120366747e-01
1.666029805120366747e-01
1.643102789453572687e-01
1.643102789453572687e-01
1.643102789453572687e-01
1.742453190676346853e-01
1.742453190676346853e-01
1.467329002674818417e-01
1.467329002674818417e-01
1.467329002674818417e-01
1.513183034008406536e-01
1.513183034008406536e-01
1.482613679786014549e-01
1.482613679786014549e-01
1.482613679786014549e-01
1.471150171952617380e-01
1.471150171952617380e-01
1.730989682842949962e-01
1.730989682842949962e-01
1.730989682842949962e-01
1.666029805120366747e-01
1.666029805120366747e-01
1.578142911730989750e-01
1.578142911730989750e-01
1.578142911730989750e-01
1.524646541841803704e-01
1.524646541841803704e-01
1.650745128009170892e-01
1.650745128009170892e-01
1.650745128009170892e-01
1.593427588842185605e-01
1.593427588842185605e-01
1.536110049675200595e-01
1.536110049675200595e-01
1.536110049675200595e-01
1.524646541841803704e-01
1.524646541841803704e-01
1.585785250286587678e-01
1.585785250286587678e-01
1.585785250286587678e-01
1.432938479174627466e-01
1.432938479174627466e-01
1.719526175009552793e-01
1.719526175009552793e-01
1.719526175009552793e-01
1.547573557508597764e-01
1.547573557508597764e-01
1.417653802063431334e-01
1.417653802063431334e-01
1.417653802063431334e-01
1.410011463507833407e-01
1.410011463507833407e-01
1.364157432174245288e-01
1.364157432174245288e-01
1.364157432174245288e-01
1.463507833397019453e-01
1.463507833397019453e-01
1.578142911730989750e-01
1.578142911730989750e-01
1.578142911730989750e-01
1.589606419564386641e-01
1.589606419564386641e-01
1.612533435231180701e-01
1.612533435231180701e-01
1.612533435231180701e-01
1.387084447841039347e-01
1.387084447841039347e-01
1.387084447841039347e-01
1.387084447841039347e-01
1.387084447841039347e-01
1.360336262896446324e-01
1.360336262896446324e-01
1.501719526175009645e-01
1.501719526175009645e-01
1.501719526175009645e-01
1.646923958731371929e-01
1.646923958731371929e-01
1.589606419564386641e-01
1.589606419564386641e-01
1.589606419564386641e-01
1.367978601452044252e-01
1.367978601452044252e-01
1.387084447841039347e-01
1.387084447841039347e-01
1.387084447841039347e-01
1.299197554451662073e-01
1.299197554451662073e-01
1.474971341230416622e-01
1.474971341230416622e-01
1.474971341230416622e-01
1.459686664119220489e-01
1.459686664119220489e-01
1.421474971341230298e-01
1.421474971341230298e-01
1.421474971341230298e-01
1.597248758119984846e-01
1.597248758119984846e-01
1.329766908674054338e-01
1.329766908674054338e-01
1.329766908674054338e-01
1.455865494841421526e-01
1.455865494841421526e-01
1.566679403897592582e-01
1.566679403897592582e-01
1.566679403897592582e-01
1.585785250286587678e-01
1.585785250286587678e-01
1.329766908674054338e-01
1.329766908674054338e-01
1.505540695452808608e-01
1.505540695452808608e-01
1.505540695452808608e-01
1.360336262896446324e-01
1.360336262896446324e-01
1.387084447841039347e-01
1.387084447841039347e-01
1.387084447841039347e-01
1.337409247229652265e-01
1.337409247229652265e-01
1.459686664119220489e-01
1.459686664119220489e-01
1.459686664119220489e-01
1.348872755063049156e-01
1.348872755063049156e-01
1.341230416507451229e-01
1.341230416507451229e-01
1.341230416507451229e-01
1.574321742453190787e-01
1.574321742453190787e-01
1.410011463507833407e-01
1.410011463507833407e-01
1.410011463507833407e-01
1.280091708062667255e-01
1.280091708062667255e-01
1.467329002674818417e-01
1.467329002674818417e-01
1.467329002674818417e-01
1.280091708062667255e-01
1.280091708062667255e-01
1.379442109285441420e-01
1.379442109285441420e-01
1.379442109285441420e-01
1.562858234619793618e-01
1.562858234619793618e-01
1.283912877340466219e-01
1.283912877340466219e-01
1.283912877340466219e-01
1.432938479174627466e-01
1.432938479174627466e-01
1.452044325563622562e-01
1.452044325563622562e-01
1.452044325563622562e-01
1.383263278563240384e-01
1.383263278563240384e-01
1.341230416507451229e-01
1.341230416507451229e-01
1.341230416507451229e-01
1.245701184562476166e-01
1.245701184562476166e-01
1.390905617118838311e-01
1.390905617118838311e-01
1.390905617118838311e-01
1.325945739396255374e-01
1.325945739396255374e-01
1.528467711119602668e-01
1.528467711119602668e-01
1.528467711119602668e-01
1.524646541841803704e-01
1.524646541841803704e-01
1.272449369507069050e-01
1.272449369507069050e-01
1.272449369507069050e-01
1.260985861673672159e-01
1.260985861673672159e-01
1.398547955674436516e-01
1.398547955674436516e-01
1.398547955674436516e-01
1.257164692395873196e-01
1.257164692395873196e-01
1.329766908674054338e-01
1.329766908674054338e-01
1.329766908674054338e-01
1.283912877340466219e-01
1.283912877340466219e-01
1.249522353840275130e-01
1.249522353840275130e-01
1.249522353840275130e-01
1.497898356897210681e-01
1.497898356897210681e-01
1.211310661062285077e-01
1.211310661062285077e-01
1.211310661062285077e-01
1.398547955674436516e-01
1.398547955674436516e-01
1.249522353840275130e-01
1.249522353840275130e-01
1.249522353840275130e-01
1.345051585785250192e-01
1.345051585785250192e-01
1.215131830340084040e-01
1.215131830340084040e-01
1.215131830340084040e-01
1.280091708062667255e-01
1.280091708062667255e-01
1.196025983951089083e-01
1.196025983951089083e-01
1.196025983951089083e-01
1.184562476117692054e-01
1.184562476117692054e-01
1.379442109285441420e-01
1.379442109285441420e-01
1.379442109285441420e-01
1.410011463507833407e-01
1.410011463507833407e-01
1.222774168895682106e-01
1.222774168895682106e-01
1.222774168895682106e-01
1.299197554451662073e-01
1.299197554451662073e-01
1.287734046618265182e-01
1.287734046618265182e-01
1.287734046618265182e-01
1.157814291173099031e-01
1.157814291173099031e-01
1.360336262896446324e-01
1.360336262896446324e-01
1.360336262896446324e-01
1.303018723729461315e-01
1.303018723729461315e-01
1.440580817730225394e-01
1.440580817730225394e-01
1.440580817730225394e-01
1.249522353840275130e-01
1.249522353840275130e-01
1.150171952617500964e-01
1.150171952617500964e-01
1.150171952617500964e-01
1.161635460450897994e-01
1.161635460450897994e-01
1.196025983951089083e-01
1.196025983951089083e-01
1.196025983951089083e-01
1.310661062285059242e-01
1.310661062285059242e-01
1.153993121895299928e-01
1.153993121895299928e-01
1.153993121895299928e-01
1.127244936950706905e-01
1.127244936950706905e-01
1.425296140619029539e-01
1.425296140619029539e-01
1.425296140619029539e-01
1.314482231562858205e-01
1.314482231562858205e-01
1.371799770729843215e-01
1.371799770729843215e-01
1.371799770729843215e-01
1.390905617118838311e-01
1.390905617118838311e-01
1.173098968284295024e-01
1.173098968284295024e-01
1.173098968284295024e-01
1.432938479174627466e-01
1.432938479174627466e-01
1.199847153228888047e-01
1.199847153228888047e-01
1.199847153228888047e-01
1.134887275506304971e-01
1.134887275506304971e-01
1.367978601452044252e-01
1.367978601452044252e-01
1.367978601452044252e-01
1.257164692395873196e-01
1.257164692395873196e-01
1.303018723729461315e-01
1.303018723729461315e-01
1.303018723729461315e-01
1.417653802063431334e-01
1.417653802063431334e-01
1.299197554451662073e-01
1.299197554451662073e-01
1.299197554451662073e-01
1.123423767672907941e-01
1.123423767672907941e-01
1.352693924340848397e-01
1.352693924340848397e-01
1.352693924340848397e-01
1.234237676729079136e-01
1.234237676729079136e-01
1.264807030951471123e-01
1.264807030951471123e-01
1.264807030951471123e-01
1.180741306839892951e-01
1.180741306839892951e-01
1.264807030951471123e-01
1.264807030951471123e-01
1.264807030951471123e-01
1.413832632785632371e-01
1.413832632785632371e-01
1.432938479174627466e-01
1.432938479174627466e-01
1.432938479174627466e-01
1.345051585785250192e-01
1.345051585785250192e-01
1.417653802063431334e-01
1.417653802063431334e-01
1.417653802063431334e-01
1.425296140619029539e-01
1.425296140619029539e-01
1.134887275506304971e-01
1.134887275506304971e-01
1.276270538784868291e-01
1.276270538784868291e-01
1.276270538784868291e-01
1.131066106228505869e-01
1.131066106228505869e-01
1.134887275506304971e-01
1.134887275506304971e-01
1.134887275506304971e-01
1.157814291173099031e-01
1.157814291173099031e-01
1.104317921283912846e-01
1.104317921283912846e-01
1.104317921283912846e-01
1.360336262896446324e-01
1.360336262896446324e-01
1.127244936950706905e-01
1.127244936950706905e-01
1.127244936950706905e-01
1.379442109285441420e-01
1.379442109285441420e-01
1.375620940007642456e-01
1.375620940007642456e-01
1.375620940007642456e-01
1.134887275506304971e-01
1.134887275506304971e-01
1.161635460450897994e-01
1.161635460450897994e-01
1.161635460450897994e-01
1.100496752006113882e-01
1.100496752006113882e-01
1.283912877340466219e-01
1.283912877340466219e-01
1.283912877340466219e-01
1.234237676729079136e-01
1.234237676729079136e-01
1.352693924340848397e-01
1.352693924340848397e-01
1.352693924340848397e-01
1.238058846006878100e-01
1.238058846006878100e-01
1.092854413450515816e-01
1.092854413450515816e-01
1.092854413450515816e-01
1.085212074894917889e-01
1.085212074894917889e-01
1.371799770729843215e-01
1.371799770729843215e-01
1.371799770729843215e-01
1.387084447841039347e-01
1.387084447841039347e-01
1.123423767672907941e-01
1.123423767672907941e-01
1.123423767672907941e-01
1.123423767672907941e-01
1.123423767672907941e-01
1.394726786396637275e-01
1.394726786396637275e-01
1.394726786396637275e-01
1.356515093618647361e-01
1.356515093618647361e-01
1.371799770729843215e-01
1.371799770729843215e-01
1.371799770729843215e-01
1.188383645395491017e-01
1.188383645395491017e-01
1.333588077951853301e-01
1.333588077951853301e-01
1.333588077951853301e-01
1.241880015284677063e-01
1.241880015284677063e-01
1.150171952617500964e-01
1.150171952617500964e-01
1.150171952617500964e-01
1.287734046618265182e-01
1.287734046618265182e-01
1.406190294230034443e-01
1.406190294230034443e-01
1.406190294230034443e-01
1.196025983951089083e-01
1.196025983951089083e-01
1.157814291173099031e-01
1.157814291173099031e-01
1.157814291173099031e-01
1.367978601452044252e-01
1.367978601452044252e-01
1.471150171952617380e-01
1.471150171952617380e-01
1.471150171952617380e-01
1.096675582728314918e-01
1.096675582728314918e-01
1.303018723729461315e-01
1.303018723729461315e-01
1.303018723729461315e-01
1.257164692395873196e-01
1.257164692395873196e-01
1.432938479174627466e-01
1.432938479174627466e-01
1.432938479174627466e-01
1.165456629728696958e-01
1.165456629728696958e-01
1.230416507451280034e-01
1.230416507451280034e-01
1.230416507451280034e-01
1.406190294230034443e-01
1.406190294230034443e-01
1.348872755063049156e-01
1.348872755063049156e-01
1.348872755063049156e-01
1.161635460450897994e-01
1.161635460450897994e-01
1.253343523118074232e-01
1.253343523118074232e-01
1.253343523118074232e-01
1.452044325563622562e-01
1.452044325563622562e-01
1.337409247229652265e-01
1.337409247229652265e-01
1.337409247229652265e-01
1.337409247229652265e-01
1.337409247229652265e-01
1.241880015284677063e-01
1.241880015284677063e-01
1.241880015284677063e-01
1.352693924340848397e-01
1.352693924340848397e-01
1.203668322506687011e-01
1.203668322506687011e-01
1.203668322506687011e-01
1.150171952617500964e-01
1.150171952617500964e-01
1.436759648452426430e-01
1.436759648452426430e-01
1.436759648452426430e-01
1.215131830340084040e-01
1.215131830340084040e-01
1.387084447841039347e-01
1.387084447841039347e-01
1.387084447841039347e-01
1.215131830340084040e-01
1.215131830340084040e-01
1.192204814673289981e-01
1.192204814673289981e-01
1.192204814673289981e-01
1.180741306839892951e-01
1.180741306839892951e-01
1.394726786396637275e-01
1.394726786396637275e-01
1.394726786396637275e-01
1.303018723729461315e-01
1.303018723729461315e-01
1.452044325563622562e-01
1.452044325563622562e-01
1.452044325563622562e-01
1.207489491784486113e-01
1.207489491784486113e-01
1.337409247229652265e-01
1.337409247229652265e-01
1.337409247229652265e-01
1.184562476117692054e-01
1.184562476117692054e-01
1.211310661062285077e-01
1.211310661062285077e-01
1.211310661062285077e-01
1.425296140619029539e-01
1.425296140619029539e-01
1.215131830340084040e-01
1.215131830340084040e-01
1.215131830340084040e-01
1.303018723729461315e-01
1.303018723729461315e-01
1.448223156285823598e-01
1.448223156285823598e-01
1.448223156285823598e-01
1.310661062285059242e-01
1.310661062285059242e-01
1.413832632785632371e-01
1.413832632785632371e-01
1.413832632785632371e-01
1.299197554451662073e-01
1.299197554451662073e-01
1.398547955674436516e-01
1.398547955674436516e-01
1.398547955674436516e-01
1.371799770729843215e-01
1.371799770729843215e-01
1.131066106228505869e-01
1.131066106228505869e-01
1.131066106228505869e-01
1.333588077951853301e-01
1.333588077951853301e-01
1.425296140619029539e-01
1.425296140619029539e-01
1.425296140619029539e-01
1.421474971341230298e-01
1.421474971341230298e-01
1.146350783339702001e-01
1.146350783339702001e-01
1.146350783339702001e-01
1.306839893007260278e-01
1.306839893007260278e-01
1.245701184562476166e-01
1.245701184562476166e-01
1.245701184562476166e-01
1.356515093618647361e-01
1.356515093618647361e-01
1.146350783339702001e-01
1.146350783339702001e-01
1.440580817730225394e-01
1.440580817730225394e-01
1.440580817730225394e-01
1.333588077951853301e-01
1.333588077951853301e-01
1.459686664119220489e-01
1.459686664119220489e-01
1.459686664119220489e-01
1.364157432174245288e-01
1.364157432174245288e-01
1.387084447841039347e-01
1.387084447841039347e-01
1.387084447841039347e-01
1.280091708062667255e-01
1.280091708062667255e-01
1.176920137562093988e-01
1.176920137562093988e-01
1.176920137562093988e-01
1.260985861673672159e-01
1.260985861673672159e-01
1.245701184562476166e-01
1.245701184562476166e-01
1.245701184562476166e-01
1.196025983951089083e-01
1.196025983951089083e-01
1.260985861673672159e-01
1.260985861673672159e-01
1.260985861673672159e-01
1.192204814673289981e-01
1.192204814673289981e-01
1.379442109285441420e-01
1.379442109285441420e-01
1.379442109285441420e-01
1.222774168895682106e-01
1.222774168895682106e-01
1.474971341230416622e-01
1.474971341230416622e-01
1.474971341230416622e-01
1.280091708062667255e-01
1.280091708062667255e-01
1.402369124952235480e-01
1.402369124952235480e-01
1.402369124952235480e-01
1.238058846006878100e-01
1.238058846006878100e-01
1.497898356897210681e-01
1.497898356897210681e-01
1.497898356897210681e-01
1.352693924340848397e-01
1.352693924340848397e-01
1.623996943064577869e-01
1.623996943064577869e-01
1.623996943064577869e-01
1.627818112342376833e-01
1.627818112342376833e-01
1.631639281620175796e-01
1.631639281620175796e-01
1.631639281620175796e-01
1.727168513565150998e-01
1.727168513565150998e-01
1.543752388230798522e-01
1.543752388230798522e-01
1.543752388230798522e-01
1.822697745510126199e-01
1.822697745510126199e-01
1.837982422621322054e-01
1.837982422621322054e-01
1.837982422621322054e-01
1.669850974398165711e-01
1.669850974398165711e-01
1.773022544898739117e-01
1.773022544898739117e-01
1.773022544898739117e-01
1.799770729843332140e-01
1.799770729843332140e-01
2.136033626289644549e-01
2.136033626289644549e-01
2.136033626289644549e-01
1.914405808177302160e-01
1.914405808177302160e-01
2.143675964845242754e-01
2.143675964845242754e-01
2.143675964845242754e-01
2.025219717233473493e-01
2.025219717233473493e-01
2.334734428735192879e-01
2.334734428735192879e-01
2.334734428735192879e-01
2.395873137179977130e-01
2.395873137179977130e-01
2.502865876958349500e-01
2.502865876958349500e-01
2.502865876958349500e-01
2.365303782957585144e-01
2.365303782957585144e-01
2.541077569736339137e-01
2.541077569736339137e-01
2.541077569736339137e-01
2.441727168513565249e-01
2.441727168513565249e-01
2.464654184180359309e-01
2.464654184180359309e-01
2.464654184180359309e-01
2.579289262514329328e-01
2.579289262514329328e-01
2.693924340848299348e-01
2.693924340848299348e-01
2.693924340848299348e-01
2.625143293847917447e-01
2.625143293847917447e-01
2.842949942682460596e-01
2.842949942682460596e-01
2.842949942682460596e-01
2.934658005349636833e-01
2.934658005349636833e-01
2.896446312571647197e-01
2.896446312571647197e-01
2.896446312571647197e-01
3.026366068016813071e-01
3.026366068016813071e-01
2.762705387848681804e-01
2.762705387848681804e-01
2.762705387848681804e-01
3.106610622850592418e-01
3.106610622850592418e-01
3.152464654184180537e-01
3.152464654184180537e-01
3.152464654184180537e-01
3.144822315628582610e-01
3.144822315628582610e-01
3.129537638517386200e-01
3.129537638517386200e-01
3.129537638517386200e-01
3.083683607183798081e-01
3.083683607183798081e-01
3.202139854795567619e-01
3.202139854795567619e-01
3.202139854795567619e-01
3.263278563240351593e-01
3.263278563240351593e-01
3.049293083683607408e-01
3.049293083683607408e-01
3.049293083683607408e-01
3.312953763851738676e-01
3.312953763851738676e-01
3.328238440962934530e-01
3.328238440962934530e-01
3.328238440962934530e-01
3.328238440962934530e-01
3.328238440962934530e-01
3.095147115017195527e-01
3.095147115017195527e-01
3.095147115017195527e-01
3.167749331295376392e-01
3.167749331295376392e-01
3.213603362628964510e-01
3.213603362628964510e-01
3.213603362628964510e-01
3.183034008406572246e-01
3.183034008406572246e-01
3.156285823461979501e-01
3.156285823461979501e-01
3.156285823461979501e-01
3.110431792128391382e-01
3.110431792128391382e-01
3.339701948796331421e-01
3.339701948796331421e-01
3.339701948796331421e-01
3.423767672907909732e-01
3.423767672907909732e-01
3.416125334352311804e-01
3.416125334352311804e-01
3.416125334352311804e-01
3.351165456629728867e-01
3.351165456629728867e-01
3.183034008406572246e-01
3.183034008406572246e-01
3.183034008406572246e-01
3.209782193351165547e-01
3.209782193351165547e-01
3.469621704241497850e-01
3.469621704241497850e-01
3.469621704241497850e-01
3.171570500573175355e-01
3.171570500573175355e-01
3.297669086740542821e-01
3.297669086740542821e-01
3.297669086740542821e-01
3.183034008406572246e-01
3.183034008406572246e-01
3.217424531906763474e-01
3.217424531906763474e-01
3.217424531906763474e-01
3.431410011463507659e-01
3.431410011463507659e-01
3.354986625907527831e-01
3.354986625907527831e-01
3.354986625907527831e-01
3.270920901795949520e-01
3.270920901795949520e-01
3.500191058463890115e-01
3.500191058463890115e-01
3.259457393962552629e-01
3.259457393962552629e-01
3.259457393962552629e-01
3.332059610240733494e-01
3.332059610240733494e-01
3.251815055406954702e-01
3.251815055406954702e-01
3.251815055406954702e-01
3.263278563240351593e-01
3.263278563240351593e-01
3.263278563240351593e-01
3.263278563240351593e-01
3.263278563240351593e-01
3.561329766908674088e-01
3.561329766908674088e-01
3.465800534963698887e-01
3.465800534963698887e-01
3.465800534963698887e-01
3.580435613297668906e-01
3.580435613297668906e-01
3.546045089797478234e-01
3.546045089797478234e-01
3.546045089797478234e-01
3.515475735575085969e-01
3.515475735575085969e-01
3.611004967520061171e-01
3.611004967520061171e-01
3.611004967520061171e-01
3.595720290408865316e-01
3.595720290408865316e-01
3.576614444019869943e-01
3.576614444019869943e-01
3.576614444019869943e-01
3.423767672907909732e-01
3.423767672907909732e-01
3.320596102407336603e-01
3.320596102407336603e-01
3.320596102407336603e-01
3.557508597630875125e-01
3.557508597630875125e-01
3.584256782575467870e-01
3.584256782575467870e-01
3.584256782575467870e-01
3.534581581964080788e-01
3.534581581964080788e-01
3.641574321742453435e-01
3.641574321742453435e-01
3.641574321742453435e-01
3.435231180741306622e-01
3.435231180741306622e-01
3.549866259075277197e-01
3.549866259075277197e-01
3.549866259075277197e-01
3.427588842185708695e-01
3.427588842185708695e-01
3.599541459686664280e-01
3.599541459686664280e-01
