5.422239205196790479e-01
5.292319449751623495e-01
5.292319449751623495e-01
5.246465418418035931e-01
5.246465418418035931e-01
5.246465418418035931e-01
5.242644249140236967e-01
5.242644249140236967e-01
5.299961788307222532e-01
5.299961788307222532e-01
5.299961788307222532e-01
5.250286587695834895e-01
5.250286587695834895e-01
5.112724493695071093e-01
5.112724493695071093e-01
5.112724493695071093e-01
5.093618647306075164e-01
5.093618647306075164e-01
5.074512800917080346e-01
5.074512800917080346e-01
5.074512800917080346e-01
5.040122277416889673e-01
5.040122277416889673e-01
5.040122277416889673e-01
5.040122277416889673e-01
5.040122277416889673e-01
5.051585785250286564e-01
5.051585785250286564e-01
5.204432556362247331e-01
5.204432556362247331e-01
5.204432556362247331e-01
5.085976308750477237e-01
5.085976308750477237e-01
5.215896064195644222e-01
5.215896064195644222e-01
5.215896064195644222e-01
4.887275506304929462e-01
4.887275506304929462e-01
5.089797478028276201e-01
5.089797478028276201e-01
5.089797478028276201e-01
5.040122277416889673e-01
5.040122277416889673e-01
4.868169659915934089e-01
4.868169659915934089e-01
4.868169659915934089e-01
5.028658769583492782e-01
5.028658769583492782e-01
4.673290026748184722e-01
4.673290026748184722e-01
4.673290026748184722e-01
4.803209782193351152e-01
4.803209782193351152e-01
4.558654948414214703e-01
4.558654948414214703e-01
4.558654948414214703e-01
4.638899503247994049e-01
4.638899503247994049e-01
4.535727932747420921e-01
4.535727932747420921e-01
4.535727932747420921e-01
4.768819258693159924e-01
4.768819258693159924e-01
4.554833779136415739e-01
4.554833779136415739e-01
4.554833779136415739e-01
4.619793656858998676e-01
4.619793656858998676e-01
4.551012609858616775e-01
4.551012609858616775e-01
4.551012609858616775e-01
4.405808177302254491e-01
4.405808177302254491e-01
4.489873901413832802e-01
4.489873901413832802e-01
4.489873901413832802e-01
4.371417653802063263e-01
4.371417653802063263e-01
4.344669468857470518e-01
4.344669468857470518e-01
4.344669468857470518e-01
4.168895682078715970e-01
4.168895682078715970e-01
4.264424914023691171e-01
4.264424914023691171e-01
4.264424914023691171e-01
4.008406572411157831e-01
4.008406572411157831e-01
3.798242262132212610e-01
3.798242262132212610e-01
3.798242262132212610e-01
3.985479556744364049e-01
3.985479556744364049e-01
3.958731371799770749e-01
3.958731371799770749e-01
3.958731371799770749e-01
3.729461215131830154e-01
3.729461215131830154e-01
3.515475735575085969e-01
3.515475735575085969e-01
3.515475735575085969e-01
3.691249522353840518e-01
3.691249522353840518e-01
3.385555980129919540e-01
3.385555980129919540e-01
3.385555980129919540e-01
3.622468475353458062e-01
3.622468475353458062e-01
3.435231180741306622e-01
3.435231180741306622e-01
3.435231180741306622e-01
3.354986625907527831e-01
3.354986625907527831e-01
3.332059610240733494e-01
3.332059610240733494e-01
3.332059610240733494e-01
3.007260221627818253e-01
3.007260221627818253e-01
3.003439052350019289e-01
3.003439052350019289e-01
3.003439052350019289e-01
3.167749331295376392e-01
3.167749331295376392e-01
2.797095911348873032e-01
2.797095911348873032e-01
2.797095911348873032e-01
2.686282002292701421e-01
2.686282002292701421e-01
2.946121513183034279e-01
2.946121513183034279e-01
2.946121513183034279e-01
2.651891478792510748e-01
2.651891478792510748e-01
2.510508215513947428e-01
2.510508215513947428e-01
2.510508215513947428e-01
2.556362246847535546e-01
2.556362246847535546e-01
2.499044707680550259e-01
2.499044707680550259e-01
2.499044707680550259e-01
2.426442491402369117e-01
2.426442491402369117e-01
2.556362246847535546e-01
2.556362246847535546e-01
2.556362246847535546e-01
2.243026366068016919e-01
2.243026366068016919e-01
2.468475353458158272e-01
2.468475353458158272e-01
2.468475353458158272e-01
2.132212457011845586e-01
2.132212457011845586e-01
2.113106610622850490e-01
2.113106610622850490e-01
2.113106610622850490e-01
2.105464272067252562e-01
2.105464272067252562e-01
2.220099350401222860e-01
2.220099350401222860e-01
2.220099350401222860e-01
2.051967902178066516e-01
2.051967902178066516e-01
2.044325563622468589e-01
2.044325563622468589e-01
2.044325563622468589e-01
2.002292701566679434e-01
2.002292701566679434e-01
1.887657623232709136e-01
1.887657623232709136e-01
1.887657623232709136e-01
1.780664883454337044e-01
1.780664883454337044e-01
1.967902178066488483e-01
1.967902178066488483e-01
1.967902178066488483e-01
1.700420328620557975e-01
1.700420328620557975e-01
1.669850974398165711e-01
1.669850974398165711e-01
1.669850974398165711e-01
1.757737867787542985e-01
1.757737867787542985e-01
1.578142911730989750e-01
1.578142911730989750e-01
1.708062667176155902e-01
1.708062667176155902e-01
1.708062667176155902e-01
1.666029805120366747e-01
1.666029805120366747e-01
1.646923958731371929e-01
1.646923958731371929e-01
1.646923958731371929e-01
1.776843714176538080e-01
1.776843714176538080e-01
1.826518914787925163e-01
1.826518914787925163e-01
1.826518914787925163e-01
1.826518914787925163e-01
1.826518914787925163e-01
1.654566297286969856e-01
1.654566297286969856e-01
1.654566297286969856e-01
1.440580817730225394e-01
1.440580817730225394e-01
1.742453190676346853e-01
1.742453190676346853e-01
1.742453190676346853e-01
1.692777990064959770e-01
1.692777990064959770e-01
1.650745128009170892e-01
1.650745128009170892e-01
1.650745128009170892e-01
1.402369124952235480e-01
1.402369124952235480e-01
1.497898356897210681e-01
1.497898356897210681e-01
1.497898356897210681e-01
1.612533435231180701e-01
1.612533435231180701e-01
1.413832632785632371e-01
1.413832632785632371e-01
1.413832632785632371e-01
1.367978601452044252e-01
1.367978601452044252e-01
1.581964081008788714e-01
1.581964081008788714e-01
1.581964081008788714e-01
1.402369124952235480e-01
1.402369124952235480e-01
1.394726786396637275e-01
1.394726786396637275e-01
1.394726786396637275e-01
1.379442109285441420e-01
1.379442109285441420e-01
1.650745128009170892e-01
1.650745128009170892e-01
1.650745128009170892e-01
1.337409247229652265e-01
1.337409247229652265e-01
1.371799770729843215e-01
1.371799770729843215e-01
1.371799770729843215e-01
1.505540695452808608e-01
1.505540695452808608e-01
1.494077187619411440e-01
1.494077187619411440e-01
1.494077187619411440e-01
1.303018723729461315e-01
1.303018723729461315e-01
1.532288880397401631e-01
1.532288880397401631e-01
1.532288880397401631e-01
1.345051585785250192e-01
1.345051585785250192e-01
1.310661062285059242e-01
1.310661062285059242e-01
1.310661062285059242e-01
1.574321742453190787e-01
1.574321742453190787e-01
1.276270538784868291e-01
1.276270538784868291e-01
1.276270538784868291e-01
1.341230416507451229e-01
1.341230416507451229e-01
1.429117309896828503e-01
1.429117309896828503e-01
1.429117309896828503e-01
1.215131830340084040e-01
1.215131830340084040e-01
1.352693924340848397e-01
1.352693924340848397e-01
1.352693924340848397e-01
1.509361864730607572e-01
1.509361864730607572e-01
1.486434849063813513e-01
1.486434849063813513e-01
1.486434849063813513e-01
1.337409247229652265e-01
1.337409247229652265e-01
1.486434849063813513e-01
1.486434849063813513e-01
1.486434849063813513e-01
1.169277799006495921e-01
1.169277799006495921e-01
1.379442109285441420e-01
1.379442109285441420e-01
1.379442109285441420e-01
1.192204814673289981e-01
1.192204814673289981e-01
1.207489491784486113e-01
1.207489491784486113e-01
1.207489491784486113e-01
1.100496752006113882e-01
1.100496752006113882e-01
1.348872755063049156e-01
1.348872755063049156e-01
1.348872755063049156e-01
1.111960259839510912e-01
1.111960259839510912e-01
1.035536874283530806e-01
1.035536874283530806e-01
1.035536874283530806e-01
1.322124570118456133e-01
1.322124570118456133e-01
1.299197554451662073e-01
1.299197554451662073e-01
1.299197554451662073e-01
9.973251815055407532e-02
9.973251815055407532e-02
9.629346580053496640e-02
9.629346580053496640e-02
9.629346580053496640e-02
1.161635460450897994e-01
1.161635460450897994e-01
9.667558272831486277e-02
9.667558272831486277e-02
9.667558272831486277e-02
1.257164692395873196e-01
1.257164692395873196e-01
1.001146350783339717e-01
1.001146350783339717e-01
1.001146350783339717e-01
1.089033244172716852e-01
1.089033244172716852e-01
1.157814291173099031e-01
1.157814291173099031e-01
1.157814291173099031e-01
9.400076423385556046e-02
9.400076423385556046e-02
1.123423767672907941e-01
1.123423767672907941e-01
1.123423767672907941e-01
1.161635460450897994e-01
1.161635460450897994e-01
1.157814291173099031e-01
1.157814291173099031e-01
1.157814291173099031e-01
8.865112724493695584e-02
8.865112724493695584e-02
1.131066106228505869e-01
1.131066106228505869e-01
1.131066106228505869e-01
1.115781429117309875e-01
1.115781429117309875e-01
8.712265953381734263e-02
8.712265953381734263e-02
8.712265953381734263e-02
1.123423767672907941e-01
1.123423767672907941e-01
9.247229652273596112e-02
9.247229652273596112e-02
9.247229652273596112e-02
8.521207489491784692e-02
8.521207489491784692e-02
9.552923194497515980e-02
9.552923194497515980e-02
9.552923194497515980e-02
7.795185326709973272e-02
7.795185326709973272e-02
1.058463889950324865e-01
1.058463889950324865e-01
1.058463889950324865e-01
1.039358043561329770e-01
1.039358043561329770e-01
1.001146350783339717e-01
1.001146350783339717e-01
1.001146350783339717e-01
9.323653037829575385e-02
9.323653037829575385e-02
1.100496752006113882e-01
1.100496752006113882e-01
1.100496752006113882e-01
7.565915170042032678e-02
7.565915170042032678e-02
8.100878868933893140e-02
8.100878868933893140e-02
8.100878868933893140e-02
8.865112724493695584e-02
8.865112724493695584e-02
8.674054260603744626e-02
8.674054260603744626e-02
8.674054260603744626e-02
7.604126862820022315e-02
7.604126862820022315e-02
9.743981658387466938e-02
9.743981658387466938e-02
7.413068398930072744e-02
7.413068398930072744e-02
7.413068398930072744e-02
1.016431027894535710e-01
1.016431027894535710e-01
7.565915170042032678e-02
7.565915170042032678e-02
7.565915170042032678e-02
1.039358043561329770e-01
1.039358043561329770e-01
8.674054260603744626e-02
8.674054260603744626e-02
8.674054260603744626e-02
7.909820405043943570e-02
7.909820405043943570e-02
9.476499808941536707e-02
9.476499808941536707e-02
9.476499808941536707e-02
7.833397019487962909e-02
7.833397019487962909e-02
7.260221627818112811e-02
7.260221627818112811e-02
7.260221627818112811e-02
9.247229652273596112e-02
9.247229652273596112e-02
9.629346580053496640e-02
9.629346580053496640e-02
9.629346580053496640e-02
7.107374856706151489e-02
7.107374856706151489e-02
9.935040122277416508e-02
9.935040122277416508e-02
9.935040122277416508e-02
9.973251815055407532e-02
9.973251815055407532e-02
7.260221627818112811e-02
7.260221627818112811e-02
7.260221627818112811e-02
9.552923194497515980e-02
9.552923194497515980e-02
8.100878868933893140e-02
8.100878868933893140e-02
8.100878868933893140e-02
9.973251815055407532e-02
9.973251815055407532e-02
7.833397019487962909e-02
7.833397019487962909e-02
7.833397019487962909e-02
1.031715705005731704e-01
1.031715705005731704e-01
1.054642720672525763e-01
1.054642720672525763e-01
1.054642720672525763e-01
9.514711501719526343e-02
9.514711501719526343e-02
1.043179212839128733e-01
1.043179212839128733e-01
1.043179212839128733e-01
6.878104700038212282e-02
6.878104700038212282e-02
7.030951471150172216e-02
7.030951471150172216e-02
7.030951471150172216e-02
7.069163163928161853e-02
7.069163163928161853e-02
7.986243790599924230e-02
7.986243790599924230e-02
7.986243790599924230e-02
7.260221627818112811e-02
7.260221627818112811e-02
1.008788689338937783e-01
1.008788689338937783e-01
1.008788689338937783e-01
7.871608712265953933e-02
7.871608712265953933e-02
7.069163163928161853e-02
7.069163163928161853e-02
7.069163163928161853e-02
9.896828429499426871e-02
9.896828429499426871e-02
7.680550248376002975e-02
7.680550248376002975e-02
7.680550248376002975e-02
6.457776079480320730e-02
6.457776079480320730e-02
7.451280091708062381e-02
7.451280091708062381e-02
7.451280091708062381e-02
8.521207489491784692e-02
8.521207489491784692e-02
6.610622850592280664e-02
6.610622850592280664e-02
6.610622850592280664e-02
9.323653037829575385e-02
9.323653037829575385e-02
6.266717615590371160e-02
6.266717615590371160e-02
6.266717615590371160e-02
6.343141001146350433e-02
6.343141001146350433e-02
7.527703477264043042e-02
7.527703477264043042e-02
7.527703477264043042e-02
9.858616736721437235e-02
9.858616736721437235e-02
6.801681314482231622e-02
6.801681314482231622e-02
6.801681314482231622e-02
7.145586549484142513e-02
7.145586549484142513e-02
7.718761941153992612e-02
7.718761941153992612e-02
7.718761941153992612e-02
7.909820405043943570e-02
7.909820405043943570e-02
8.482995796713795056e-02
8.482995796713795056e-02
8.482995796713795056e-02
9.247229652273596112e-02
9.247229652273596112e-02
1.169277799006495921e-01
1.169277799006495921e-01
1.169277799006495921e-01
1.333588077951853301e-01
1.333588077951853301e-01
1.150171952617500964e-01
1.150171952617500964e-01
1.150171952617500964e-01
1.299197554451662073e-01
1.299197554451662073e-01
1.681314482231562879e-01
1.681314482231562879e-01
1.681314482231562879e-01
1.539931218952999559e-01
1.539931218952999559e-01
1.700420328620557975e-01
1.700420328620557975e-01
1.700420328620557975e-01
1.841803591899121018e-01
1.841803591899121018e-01
2.262132212457011737e-01
2.262132212457011737e-01
2.262132212457011737e-01
2.124570118456247658e-01
2.124570118456247658e-01
2.334734428735192879e-01
2.334734428735192879e-01
2.334734428735192879e-01
2.644249140236912266e-01
2.644249140236912266e-01
2.927015666794038906e-01
2.927015666794038906e-01
2.927015666794038906e-01
3.087504776461597045e-01
3.087504776461597045e-01
3.247993886129155738e-01
3.247993886129155738e-01
3.247993886129155738e-01
3.439052350019105586e-01
3.439052350019105586e-01
3.278563240351547448e-01
3.278563240351547448e-01
3.278563240351547448e-01
3.687428353076040999e-01
3.687428353076040999e-01
3.809705769965609501e-01
3.809705769965609501e-01
3.809705769965609501e-01
3.763851738632021382e-01
3.763851738632021382e-01
4.103935804356133032e-01
4.103935804356133032e-01
4.103935804356133032e-01
4.283530760412686544e-01
4.283530760412686544e-01
4.237676729079098426e-01
4.237676729079098426e-01
4.237676729079098426e-01
4.566297286969812630e-01
4.566297286969812630e-01
4.501337409247229693e-01
4.501337409247229693e-01
4.501337409247229693e-01
4.764998089415360960e-01
4.764998089415360960e-01
4.914023691249522208e-01
4.914023691249522208e-01
4.914023691249522208e-01
4.978983568972105700e-01
4.978983568972105700e-01
4.868169659915934089e-01
4.868169659915934089e-01
4.868169659915934089e-01
4.940771876194115508e-01
4.940771876194115508e-01
5.357279327474206987e-01
5.357279327474206987e-01
5.357279327474206987e-01
5.418418035918991515e-01
5.418418035918991515e-01
5.456629728696981152e-01
5.456629728696981152e-01
5.456629728696981152e-01
5.368742835307603878e-01
5.368742835307603878e-01
5.582728314864348063e-01
5.582728314864348063e-01
5.387848681696598696e-01
5.387848681696598696e-01
5.387848681696598696e-01
5.349636988918609060e-01
5.349636988918609060e-01
5.563622468475353244e-01
5.563622468475353244e-01
5.563622468475353244e-01
5.575085976308750135e-01
5.575085976308750135e-01
5.754680932365303647e-01
5.754680932365303647e-01
5.754680932365303647e-01
5.494841421474970788e-01
5.494841421474970788e-01
5.613297669086740882e-01
5.613297669086740882e-01
5.613297669086740882e-01
5.544516622086358426e-01
5.544516622086358426e-01
5.766144440198700538e-01
5.766144440198700538e-01
5.766144440198700538e-01
5.659151700420328446e-01
5.659151700420328446e-01
5.513947267863966717e-01
5.513947267863966717e-01
5.513947267863966717e-01
5.563622468475353244e-01
5.563622468475353244e-01
5.739396255254107793e-01
5.739396255254107793e-01
5.739396255254107793e-01
5.517768437141765681e-01
5.517768437141765681e-01
5.498662590752770862e-01
5.498662590752770862e-01
5.498662590752770862e-01
5.582728314864348063e-01
5.582728314864348063e-01
5.498662590752770862e-01
5.498662590752770862e-01
5.498662590752770862e-01
5.685899885364921191e-01
5.685899885364921191e-01
5.792892625143294394e-01
5.792892625143294394e-01
5.792892625143294394e-01
5.724111578142911938e-01
5.724111578142911938e-01
5.758502101643102611e-01
5.758502101643102611e-01
5.758502101643102611e-01
5.720290408865112974e-01
5.720290408865112974e-01
5.403133358807795661e-01
5.403133358807795661e-01
5.403133358807795661e-01
5.471914405808177007e-01
5.471914405808177007e-01
5.510126098586167753e-01
5.510126098586167753e-01
5.510126098586167753e-01
5.395491020252196623e-01
5.395491020252196623e-01
5.303782957585021496e-01
5.303782957585021496e-01
5.303782957585021496e-01
5.533053114252961535e-01
5.533053114252961535e-01
5.452808559419182188e-01
5.452808559419182188e-01
5.452808559419182188e-01
5.533053114252961535e-01
5.533053114252961535e-01
5.154757355750859693e-01
5.154757355750859693e-01
5.154757355750859693e-01
5.154757355750859693e-01
5.154757355750859693e-01
5.128009170806266948e-01
5.128009170806266948e-01
5.128009170806266948e-01
5.173863202139854511e-01
5.173863202139854511e-01
5.341994650363011132e-01
5.341994650363011132e-01
5.341994650363011132e-01
5.380206343141000769e-01
5.380206343141000769e-01
5.265571264807030749e-01
5.265571264807030749e-01
5.265571264807030749e-01
4.952235384027512399e-01
4.952235384027512399e-01
5.215896064195644222e-01
5.215896064195644222e-01
5.215896064195644222e-01
5.166220863584256584e-01
5.166220863584256584e-01
5.173863202139854511e-01
5.173863202139854511e-01
5.173863202139854511e-01
4.887275506304929462e-01
4.887275506304929462e-01
4.956056553305311363e-01
4.956056553305311363e-01
4.956056553305311363e-01
4.784103935804356333e-01
4.784103935804356333e-01
4.730607565915170287e-01
4.730607565915170287e-01
4.730607565915170287e-01
4.948414214749713436e-01
4.948414214749713436e-01
4.948414214749713436e-01
4.948414214749713436e-01
4.948414214749713436e-01
4.722965227359571805e-01
4.722965227359571805e-01
4.600687810470003858e-01
4.600687810470003858e-01
4.600687810470003858e-01
4.520443255636224511e-01
4.520443255636224511e-01
4.482231562858234875e-01
4.482231562858234875e-01
4.482231562858234875e-01
4.554833779136415739e-01
4.554833779136415739e-01
4.722965227359571805e-01
4.722965227359571805e-01
4.722965227359571805e-01
4.665647688192586795e-01
4.665647688192586795e-01
4.333205961024073627e-01
4.333205961024073627e-01
4.333205961024073627e-01
4.493695070691631765e-01
4.493695070691631765e-01
4.512800917080626584e-01
4.512800917080626584e-01
4.512800917080626584e-01
4.340848299579671554e-01
4.340848299579671554e-01
4.337027130301872591e-01
4.337027130301872591e-01
4.337027130301872591e-01
4.314100114635078254e-01
4.314100114635078254e-01
4.294994268246083435e-01
4.294994268246083435e-01
4.294994268246083435e-01
3.993121895299961976e-01
3.993121895299961976e-01
4.058081773022544914e-01
4.058081773022544914e-01
4.058081773022544914e-01
4.084829957967138214e-01
4.084829957967138214e-01
4.073366450133740768e-01
4.073366450133740768e-01
4.073366450133740768e-01
3.756209400076423455e-01
3.756209400076423455e-01
3.951089033244172821e-01
3.951089033244172821e-01
3.951089033244172821e-01
3.595720290408865316e-01
3.595720290408865316e-01
3.546045089797478234e-01
3.546045089797478234e-01
3.546045089797478234e-01
3.427588842185708695e-01
3.427588842185708695e-01
3.523118074130683897e-01
3.523118074130683897e-01
3.523118074130683897e-01
3.477264042797095778e-01
3.477264042797095778e-01
3.244172716851356775e-01
3.244172716851356775e-01
3.244172716851356775e-01
3.473442873519296814e-01
3.473442873519296814e-01
3.366450133740924722e-01
3.366450133740924722e-01
3.366450133740924722e-01
3.179212839128773282e-01
3.179212839128773282e-01
3.121895299961788273e-01
3.121895299961788273e-01
3.121895299961788273e-01
2.892625143293847678e-01
2.892625143293847678e-01
3.072220099350401190e-01
3.072220099350401190e-01
3.072220099350401190e-01
2.930836836071837870e-01
2.930836836071837870e-01
2.693924340848299348e-01
2.693924340848299348e-01
2.693924340848299348e-01
2.693924340848299348e-01
2.693924340848299348e-01
2.651891478792510748e-01
2.651891478792510748e-01
2.655712648070309712e-01
2.655712648070309712e-01
2.655712648070309712e-01
2.755063049293083877e-01
2.755063049293083877e-01
2.556362246847535546e-01
2.556362246847535546e-01
2.556362246847535546e-01
2.598395108903324147e-01
2.598395108903324147e-01
2.262132212457011737e-01
2.262132212457011737e-01
2.262132212457011737e-01
2.239205196790217678e-01
2.239205196790217678e-01
2.166602980512036813e-01
2.166602980512036813e-01
2.166602980512036813e-01
2.269774551012609942e-01
2.269774551012609942e-01
2.380588460068780998e-01
2.380588460068780998e-01
2.380588460068780998e-01
2.025219717233473493e-01
2.025219717233473493e-01
2.086358425678257467e-01
2.086358425678257467e-01
2.086358425678257467e-01
2.090179594956056430e-01
2.090179594956056430e-01
2.227741688956820787e-01
2.227741688956820787e-01
2.227741688956820787e-01
2.197172334734428800e-01
2.197172334734428800e-01
1.922048146732900364e-01
1.922048146732900364e-01
1.922048146732900364e-01
2.120748949178448695e-01
2.120748949178448695e-01
1.952617500955292351e-01
1.952617500955292351e-01
1.952617500955292351e-01
1.784486052732136008e-01
1.784486052732136008e-01
2.071073748567061612e-01
2.071073748567061612e-01
2.071073748567061612e-01
1.727168513565150998e-01
1.727168513565150998e-01
2.021398547955674529e-01
2.021398547955674529e-01
2.021398547955674529e-01
1.872372946121513282e-01
1.872372946121513282e-01
1.704241497898356938e-01
1.704241497898356938e-01
1.704241497898356938e-01
1.742453190676346853e-01
1.742453190676346853e-01
1.910584638899503196e-01
1.910584638899503196e-01
1.910584638899503196e-01
1.792128391287733935e-01
1.792128391287733935e-01
1.883836453954910173e-01
1.883836453954910173e-01
1.883836453954910173e-01
1.948796331677493388e-01
1.948796331677493388e-01
1.826518914787925163e-01
1.826518914787925163e-01
1.826518914787925163e-01
1.925869316010699328e-01
1.925869316010699328e-01
1.631639281620175796e-01
1.631639281620175796e-01
1.631639281620175796e-01
1.623996943064577869e-01
1.623996943064577869e-01
1.654566297286969856e-01
1.654566297286969856e-01
1.654566297286969856e-01
1.715705005731753829e-01
1.715705005731753829e-01
1.574321742453190787e-01
1.574321742453190787e-01
1.574321742453190787e-01
1.608712265953381737e-01
1.608712265953381737e-01
1.795949560565533176e-01
1.795949560565533176e-01
1.795949560565533176e-01
1.761559037065341948e-01
1.761559037065341948e-01
1.776843714176538080e-01
1.776843714176538080e-01
1.776843714176538080e-01
1.837982422621322054e-01
1.837982422621322054e-01
1.604891096675582773e-01
1.604891096675582773e-01
1.604891096675582773e-01
1.857088269010317150e-01
1.857088269010317150e-01
1.662208635842567783e-01
1.662208635842567783e-01
1.662208635842567783e-01
1.536110049675200595e-01
1.536110049675200595e-01
1.857088269010317150e-01
1.857088269010317150e-01
1.857088269010317150e-01
1.773022544898739117e-01
1.773022544898739117e-01
1.578142911730989750e-01
1.578142911730989750e-01
1.578142911730989750e-01
1.639281620175773724e-01
1.639281620175773724e-01
1.486434849063813513e-01
1.486434849063813513e-01
1.486434849063813513e-01
1.547573557508597764e-01
1.547573557508597764e-01
1.631639281620175796e-01
1.631639281620175796e-01
1.631639281620175796e-01
1.730989682842949962e-01
1.730989682842949962e-01
1.562858234619793618e-01
1.562858234619793618e-01
1.562858234619793618e-01
1.467329002674818417e-01
1.467329002674818417e-01
1.562858234619793618e-01
1.562858234619793618e-01
1.562858234619793618e-01
1.750095529231945057e-01
1.750095529231945057e-01
1.730989682842949962e-01
1.730989682842949962e-01
1.730989682842949962e-01
1.398547955674436516e-01
1.398547955674436516e-01
1.394726786396637275e-01
1.394726786396637275e-01
1.394726786396637275e-01
1.688956820787160806e-01
1.688956820787160806e-01
1.612533435231180701e-01
1.612533435231180701e-01
1.612533435231180701e-01
1.578142911730989750e-01
1.578142911730989750e-01
1.566679403897592582e-01
1.566679403897592582e-01
1.566679403897592582e-01
1.364157432174245288e-01
1.364157432174245288e-01
1.643102789453572687e-01
1.643102789453572687e-01
1.643102789453572687e-01
1.635460450897974760e-01
1.635460450897974760e-01
1.570500573175391545e-01
1.570500573175391545e-01
1.570500573175391545e-01
1.474971341230416622e-01
1.474971341230416622e-01
1.436759648452426430e-01
1.436759648452426430e-01
1.436759648452426430e-01
1.562858234619793618e-01
1.562858234619793618e-01
1.566679403897592582e-01
1.566679403897592582e-01
1.566679403897592582e-01
1.295376385173863110e-01
1.295376385173863110e-01
1.218952999617883004e-01
1.218952999617883004e-01
1.218952999617883004e-01
1.505540695452808608e-01
1.505540695452808608e-01
1.199847153228888047e-01
1.199847153228888047e-01
1.199847153228888047e-01
1.444401987008024357e-01
1.444401987008024357e-01
1.360336262896446324e-01
1.360336262896446324e-01
1.360336262896446324e-01
1.337409247229652265e-01
1.337409247229652265e-01
1.146350783339702001e-01
1.146350783339702001e-01
1.333588077951853301e-01
1.333588077951853301e-01
1.333588077951853301e-01
1.161635460450897994e-01
1.161635460450897994e-01
1.264807030951471123e-01
1.264807030951471123e-01
1.264807030951471123e-01
1.421474971341230298e-01
1.421474971341230298e-01
1.272449369507069050e-01
1.272449369507069050e-01
1.272449369507069050e-01
1.329766908674054338e-01
1.329766908674054338e-01
1.062285059228123829e-01
1.062285059228123829e-01
1.062285059228123829e-01
1.253343523118074232e-01
1.253343523118074232e-01
1.257164692395873196e-01
1.257164692395873196e-01
1.257164692395873196e-01
1.360336262896446324e-01
1.360336262896446324e-01
1.169277799006495921e-01
1.169277799006495921e-01
1.169277799006495921e-01
1.008788689338937783e-01
1.008788689338937783e-01
1.291555215896064146e-01
1.291555215896064146e-01
1.291555215896064146e-01
1.234237676729079136e-01
1.234237676729079136e-01
9.667558272831486277e-02
9.667558272831486277e-02
9.667558272831486277e-02
1.020252197172334674e-01
1.020252197172334674e-01
9.858616736721437235e-02
9.858616736721437235e-02
9.858616736721437235e-02
1.280091708062667255e-01
1.280091708062667255e-01
1.280091708062667255e-01
1.280091708062667255e-01
1.280091708062667255e-01
1.027894535727932740e-01
1.027894535727932740e-01
1.264807030951471123e-01
1.264807030951471123e-01
1.264807030951471123e-01
1.234237676729079136e-01
1.234237676729079136e-01
1.180741306839892951e-01
1.180741306839892951e-01
1.180741306839892951e-01
9.552923194497515980e-02
9.552923194497515980e-02
1.176920137562093988e-01
1.176920137562093988e-01
1.176920137562093988e-01
1.234237676729079136e-01
1.234237676729079136e-01
1.199847153228888047e-01
1.199847153228888047e-01
1.199847153228888047e-01
9.629346580053496640e-02
9.629346580053496640e-02
1.062285059228123829e-01
1.062285059228123829e-01
1.062285059228123829e-01
1.180741306839892951e-01
1.180741306839892951e-01
1.012609858616736747e-01
1.012609858616736747e-01
1.012609858616736747e-01
1.176920137562093988e-01
1.176920137562093988e-01
9.170806266717615451e-02
9.170806266717615451e-02
9.170806266717615451e-02
8.139090561711884164e-02
8.139090561711884164e-02
1.123423767672907941e-01
1.123423767672907941e-01
1.123423767672907941e-01
8.100878868933893140e-02
8.100878868933893140e-02
1.027894535727932740e-01
1.027894535727932740e-01
1.027894535727932740e-01
1.054642720672525763e-01
1.054642720672525763e-01
7.718761941153992612e-02
7.718761941153992612e-02
7.718761941153992612e-02
1.104317921283912846e-01
1.104317921283912846e-01
7.451280091708062381e-02
7.451280091708062381e-02
7.451280091708062381e-02
9.094382881161634791e-02
9.094382881161634791e-02
8.062667176155903503e-02
8.062667176155903503e-02
8.062667176155903503e-02
1.024073366450133776e-01
1.024073366450133776e-01
8.062667176155903503e-02
8.062667176155903503e-02
8.062667176155903503e-02
8.139090561711884164e-02
8.139090561711884164e-02
7.298433320596102447e-02
7.298433320596102447e-02
7.298433320596102447e-02
9.438288116163545682e-02
9.438288116163545682e-02
7.069163163928161853e-02
7.069163163928161853e-02
7.069163163928161853e-02
9.514711501719526343e-02
9.514711501719526343e-02
8.674054260603744626e-02
8.674054260603744626e-02
8.674054260603744626e-02
1.001146350783339717e-01
1.001146350783339717e-01
6.916316392816201919e-02
6.916316392816201919e-02
6.916316392816201919e-02
9.858616736721437235e-02
9.858616736721437235e-02
7.451280091708062381e-02
7.451280091708062381e-02
7.451280091708062381e-02
9.629346580053496640e-02
9.629346580053496640e-02
6.152082537256400169e-02
6.152082537256400169e-02
6.152082537256400169e-02
8.941536110049674857e-02
8.941536110049674857e-02
7.145586549484142513e-02
7.145586549484142513e-02
7.145586549484142513e-02
6.228505922812380829e-02
6.228505922812380829e-02
8.597630875047763965e-02
8.597630875047763965e-02
8.597630875047763965e-02
9.017959495605655518e-02
9.017959495605655518e-02
7.756973633931983636e-02
7.756973633931983636e-02
7.756973633931983636e-02
8.559419182269774329e-02
8.559419182269774329e-02
9.400076423385556046e-02
9.400076423385556046e-02
9.400076423385556046e-02
6.725257928926250961e-02
6.725257928926250961e-02
8.253725640045854461e-02
8.253725640045854461e-02
8.253725640045854461e-02
9.094382881161634791e-02
9.094382881161634791e-02
9.820405043943446211e-02
9.820405043943446211e-02
9.820405043943446211e-02
7.030951471150172216e-02
7.030951471150172216e-02
7.718761941153992612e-02
7.718761941153992612e-02
7.718761941153992612e-02
8.903324417271685220e-02
8.903324417271685220e-02
1.085212074894917889e-01
1.085212074894917889e-01
1.085212074894917889e-01
1.085212074894917889e-01
1.085212074894917889e-01
1.089033244172716852e-01
1.089033244172716852e-01
1.089033244172716852e-01
1.268628200229270087e-01
1.268628200229270087e-01
1.012609858616736747e-01
1.012609858616736747e-01
1.012609858616736747e-01
1.432938479174627466e-01
1.432938479174627466e-01
1.547573557508597764e-01
1.547573557508597764e-01
1.547573557508597764e-01
1.524646541841803704e-01
1.524646541841803704e-01
1.750095529231945057e-01
1.750095529231945057e-01
1.750095529231945057e-01
1.555215896064195691e-01
1.555215896064195691e-01
1.914405808177302160e-01
1.914405808177302160e-01
1.868551776843714041e-01
1.868551776843714041e-01
1.868551776843714041e-01
2.265953381734810979e-01
2.265953381734810979e-01
2.250668704623614846e-01
2.250668704623614846e-01
2.250668704623614846e-01
2.361482613679785902e-01
2.361482613679785902e-01
2.663354986625907639e-01
2.663354986625907639e-01
2.663354986625907639e-01
2.831486434849063705e-01
2.831486434849063705e-01
3.037829575850209962e-01
3.037829575850209962e-01
3.037829575850209962e-01
3.079862437905999117e-01
3.079862437905999117e-01
3.500191058463890115e-01
3.500191058463890115e-01
3.500191058463890115e-01
3.611004967520061171e-01
3.611004967520061171e-01
3.565150936186473052e-01
3.565150936186473052e-01
3.565150936186473052e-01
3.798242262132212610e-01
3.798242262132212610e-01
3.954910202521971785e-01
3.954910202521971785e-01
3.954910202521971785e-01
4.356132976690867409e-01
4.356132976690867409e-01
4.424914023691249310e-01
4.424914023691249310e-01
4.424914023691249310e-01
4.363775315246465336e-01
4.363775315246465336e-01
4.520443255636224511e-01
4.520443255636224511e-01
4.520443255636224511e-01
4.615972487581199712e-01
4.615972487581199712e-01
4.749713412304165105e-01
4.749713412304165105e-01
4.749713412304165105e-01
5.013374092472296928e-01
5.013374092472296928e-01
5.040122277416889673e-01
5.040122277416889673e-01
5.040122277416889673e-01
5.189147879251050366e-01
5.189147879251050366e-01
5.223538402751242149e-01
5.223538402751242149e-01
5.223538402751242149e-01
5.498662590752770862e-01
5.498662590752770862e-01
5.399312189529996697e-01
5.399312189529996697e-01
5.399312189529996697e-01
5.475735575085975970e-01
5.475735575085975970e-01
5.720290408865112974e-01
5.720290408865112974e-01
5.720290408865112974e-01
5.502483760030569826e-01
5.502483760030569826e-01
5.777607948032097429e-01
5.777607948032097429e-01
5.777607948032097429e-01
5.582728314864348063e-01
5.582728314864348063e-01
5.651509361864730518e-01
5.651509361864730518e-01
5.651509361864730518e-01
5.758502101643102611e-01
5.758502101643102611e-01
5.682078716087122228e-01
5.682078716087122228e-01
5.682078716087122228e-01
5.857852502865876776e-01
5.857852502865876776e-01
5.983951089033243687e-01
5.983951089033243687e-01
5.983951089033243687e-01
5.991593427588842724e-01
5.991593427588842724e-01
5.987772258311042650e-01
5.987772258311042650e-01
5.987772258311042650e-01
5.972487581199846796e-01
5.972487581199846796e-01
5.643867023309132591e-01
5.643867023309132591e-01
5.643867023309132591e-01
5.670615208253725337e-01
5.670615208253725337e-01
5.980129919755444723e-01
5.980129919755444723e-01
5.980129919755444723e-01
5.953381734810851977e-01
5.953381734810851977e-01
5.869316010699273667e-01
5.869316010699273667e-01
5.869316010699273667e-01
5.739396255254107793e-01
5.739396255254107793e-01
5.766144440198700538e-01
5.766144440198700538e-01
5.766144440198700538e-01
5.873137179977072631e-01
5.873137179977072631e-01
5.605655330531142955e-01
5.605655330531142955e-01
5.605655330531142955e-01
5.854031333588077812e-01
5.854031333588077812e-01
5.880779518532670558e-01
5.880779518532670558e-01
5.880779518532670558e-01
5.613297669086740882e-01
5.613297669086740882e-01
5.525410775697363608e-01
5.525410775697363608e-01
5.525410775697363608e-01
5.586549484142147026e-01
5.586549484142147026e-01
5.468093236530378043e-01
5.468093236530378043e-01
5.468093236530378043e-01
5.727932747420710902e-01
5.727932747420710902e-01
5.689721054642720155e-01
5.689721054642720155e-01
5.689721054642720155e-01
5.655330531142529482e-01
5.655330531142529482e-01
5.643867023309132591e-01
5.643867023309132591e-01
5.643867023309132591e-01
5.376385173863201805e-01
5.376385173863201805e-01
5.307604126862820459e-01
5.307604126862820459e-01
5.307604126862820459e-01
5.536874283530760499e-01
5.536874283530760499e-01
5.406954528085594625e-01
5.406954528085594625e-01
5.406954528085594625e-01
5.242644249140236967e-01
5.242644249140236967e-01
5.399312189529996697e-01
5.399312189529996697e-01
5.399312189529996697e-01
5.345815819640810096e-01
5.345815819640810096e-01
5.303782957585021496e-01
5.303782957585021496e-01
5.303782957585021496e-01
5.089797478028276201e-01
5.089797478028276201e-01
5.376385173863201805e-01
5.376385173863201805e-01
5.376385173863201805e-01
5.139472678639663838e-01
5.139472678639663838e-01
5.246465418418035931e-01
5.246465418418035931e-01
5.246465418418035931e-01
5.105082155139473166e-01
5.105082155139473166e-01
5.227359572029041113e-01
5.227359572029041113e-01
5.227359572029041113e-01
5.128009170806266948e-01
5.128009170806266948e-01
4.852884982804738234e-01
4.852884982804738234e-01
4.852884982804738234e-01
4.833779136415743416e-01
4.833779136415743416e-01
5.028658769583492782e-01
5.028658769583492782e-01
5.028658769583492782e-01
4.677111196025983686e-01
4.677111196025983686e-01
4.944593045471914472e-01
4.944593045471914472e-01
4.944593045471914472e-01
4.635078333970195086e-01
4.635078333970195086e-01
4.573939625525410557e-01
4.573939625525410557e-01
4.573939625525410557e-01
4.570118456247611594e-01
4.570118456247611594e-01
4.631257164692396122e-01
4.631257164692396122e-01
4.658005349636988868e-01
4.658005349636988868e-01
4.658005349636988868e-01
4.753534581581964069e-01
4.753534581581964069e-01
4.405808177302254491e-01
4.405808177302254491e-01
4.405808177302254491e-01
4.631257164692396122e-01
4.631257164692396122e-01
4.551012609858616775e-01
4.551012609858616775e-01
4.551012609858616775e-01
4.405808177302254491e-01
4.405808177302254491e-01
4.298815437523882399e-01
4.298815437523882399e-01
4.298815437523882399e-01
4.230034390523499943e-01
4.230034390523499943e-01
4.348490638135269482e-01
4.348490638135269482e-01
4.348490638135269482e-01
3.993121895299961976e-01
3.993121895299961976e-01
3.901413832632785739e-01
3.901413832632785739e-01
3.901413832632785739e-01
3.974016048910966603e-01
3.974016048910966603e-01
3.824990447076805355e-01
3.824990447076805355e-01
3.824990447076805355e-01
3.760030569354222418e-01
3.760030569354222418e-01
3.847917462743599692e-01
3.847917462743599692e-01
3.847917462743599692e-01
3.752388230798624491e-01
3.752388230798624491e-01
3.698891860909438445e-01
3.698891860909438445e-01
3.698891860909438445e-01
3.760030569354222418e-01
3.760030569354222418e-01
3.706534199465036372e-01
3.706534199465036372e-01
3.706534199465036372e-01
3.316774933129537639e-01
3.316774933129537639e-01
3.332059610240733494e-01
3.332059610240733494e-01
3.332059610240733494e-01
3.324417271685135566e-01
3.324417271685135566e-01
3.282384409629346411e-01
3.282384409629346411e-01
3.282384409629346411e-01
3.056935422239205336e-01
3.056935422239205336e-01
3.209782193351165547e-01
3.209782193351165547e-01
3.209782193351165547e-01
2.865876958349254933e-01
2.865876958349254933e-01
3.053114252961406372e-01
3.053114252961406372e-01
3.053114252961406372e-01
2.942300343905234761e-01
2.942300343905234761e-01
2.988154375238822880e-01
2.988154375238822880e-01
2.988154375238822880e-01
2.564004585403133474e-01
2.564004585403133474e-01
2.609858616736721593e-01
2.609858616736721593e-01
2.609858616736721593e-01
2.690103171570500384e-01
2.690103171570500384e-01
2.388230798624378926e-01
2.388230798624378926e-01
2.388230798624378926e-01
2.300343905235001929e-01
2.300343905235001929e-01
2.609858616736721593e-01
2.609858616736721593e-01
2.609858616736721593e-01
2.223920519679021823e-01
2.223920519679021823e-01
2.166602980512036813e-01
2.166602980512036813e-01
2.166602980512036813e-01
2.449369507069163177e-01
2.449369507069163177e-01
2.078716087122659539e-01
2.078716087122659539e-01
2.078716087122659539e-01
2.151318303400840681e-01
2.151318303400840681e-01
2.250668704623614846e-01
2.250668704623614846e-01
2.250668704623614846e-01
1.925869316010699328e-01
1.925869316010699328e-01
2.143675964845242754e-01
2.143675964845242754e-01
2.143675964845242754e-01
1.933511654566297255e-01
1.933511654566297255e-01
1.998471532288880470e-01
1.998471532288880470e-01
1.998471532288880470e-01
1.723347344287352034e-01
1.723347344287352034e-01
1.738632021398547889e-01
1.738632021398547889e-01
1.738632021398547889e-01
1.734810852120748925e-01
1.734810852120748925e-01
1.696599159342759011e-01
1.696599159342759011e-01
1.696599159342759011e-01
1.776843714176538080e-01
1.776843714176538080e-01
1.952617500955292351e-01
1.952617500955292351e-01
1.952617500955292351e-01
1.734810852120748925e-01
1.734810852120748925e-01
1.910584638899503196e-01
1.910584638899503196e-01
1.910584638899503196e-01
1.784486052732136008e-01
1.784486052732136008e-01
1.646923958731371929e-01
1.646923958731371929e-01
1.646923958731371929e-01
1.853267099732518186e-01
1.853267099732518186e-01
1.593427588842185605e-01
1.593427588842185605e-01
1.593427588842185605e-01
1.612533435231180701e-01
1.612533435231180701e-01
1.857088269010317150e-01
1.857088269010317150e-01
1.857088269010317150e-01
1.562858234619793618e-01
1.562858234619793618e-01
1.501719526175009645e-01
1.501719526175009645e-01
1.501719526175009645e-01
1.822697745510126199e-01
1.822697745510126199e-01
1.494077187619411440e-01
1.494077187619411440e-01
1.494077187619411440e-01
1.742453190676346853e-01
1.742453190676346853e-01
1.524646541841803704e-01
1.524646541841803704e-01
1.524646541841803704e-01
1.780664883454337044e-01
1.780664883454337044e-01
1.486434849063813513e-01
1.486434849063813513e-01
1.486434849063813513e-01
1.528467711119602668e-01
1.528467711119602668e-01
1.738632021398547889e-01
1.738632021398547889e-01
1.738632021398547889e-01
1.436759648452426430e-01
1.436759648452426430e-01
1.513183034008406536e-01
1.513183034008406536e-01
1.513183034008406536e-01
1.539931218952999559e-01
1.539931218952999559e-01
1.635460450897974760e-01
1.635460450897974760e-01
1.635460450897974760e-01
1.383263278563240384e-01
1.383263278563240384e-01
1.421474971341230298e-01
1.421474971341230298e-01
1.421474971341230298e-01
1.387084447841039347e-01
1.387084447841039347e-01
1.352693924340848397e-01
1.352693924340848397e-01
1.352693924340848397e-01
1.329766908674054338e-01
1.329766908674054338e-01
1.318303400840657169e-01
1.318303400840657169e-01
1.318303400840657169e-01
1.643102789453572687e-01
1.643102789453572687e-01
1.562858234619793618e-01
1.562858234619793618e-01
1.551394726786396727e-01
1.551394726786396727e-01
1.551394726786396727e-01
1.264807030951471123e-01
1.264807030951471123e-01
1.318303400840657169e-01
1.318303400840657169e-01
1.318303400840657169e-01
1.276270538784868291e-01
1.276270538784868291e-01
1.303018723729461315e-01
1.303018723729461315e-01
1.303018723729461315e-01
1.509361864730607572e-01
1.509361864730607572e-01
1.238058846006878100e-01
1.238058846006878100e-01
1.238058846006878100e-01
1.410011463507833407e-01
1.410011463507833407e-01
1.356515093618647361e-01
1.356515093618647361e-01
1.356515093618647361e-01
1.283912877340466219e-01
1.283912877340466219e-01
1.379442109285441420e-01
1.379442109285441420e-01
1.379442109285441420e-01
1.215131830340084040e-01
1.215131830340084040e-01
1.352693924340848397e-01
1.352693924340848397e-01
1.352693924340848397e-01
1.314482231562858205e-01
1.314482231562858205e-01
1.410011463507833407e-01
1.410011463507833407e-01
1.410011463507833407e-01
1.199847153228888047e-01
1.199847153228888047e-01
1.047000382116927836e-01
1.047000382116927836e-01
1.047000382116927836e-01
1.089033244172716852e-01
1.089033244172716852e-01
1.089033244172716852e-01
1.089033244172716852e-01
1.089033244172716852e-01
9.973251815055407532e-02
9.973251815055407532e-02
1.008788689338937783e-01
1.008788689338937783e-01
1.008788689338937783e-01
1.054642720672525763e-01
1.054642720672525763e-01
1.016431027894535710e-01
1.016431027894535710e-01
1.016431027894535710e-01
1.276270538784868291e-01
1.276270538784868291e-01
9.820405043943446211e-02
9.820405043943446211e-02
9.820405043943446211e-02
9.743981658387466938e-02
9.743981658387466938e-02
1.016431027894535710e-01
1.016431027894535710e-01
1.016431027894535710e-01
8.979747802827665881e-02
8.979747802827665881e-02
1.047000382116927836e-01
1.047000382116927836e-01
1.047000382116927836e-01
1.153993121895299928e-01
1.153993121895299928e-01
1.077569736339319822e-01
1.077569736339319822e-01
1.077569736339319822e-01
9.247229652273596112e-02
9.247229652273596112e-02
1.016431027894535710e-01
1.016431027894535710e-01
1.016431027894535710e-01
8.368360718379824759e-02
8.368360718379824759e-02
9.438288116163545682e-02
9.438288116163545682e-02
9.438288116163545682e-02
8.559419182269774329e-02
8.559419182269774329e-02
9.438288116163545682e-02
9.438288116163545682e-02
9.438288116163545682e-02
1.150171952617500964e-01
1.150171952617500964e-01
1.142529614061902898e-01
1.142529614061902898e-01
1.142529614061902898e-01
1.085212074894917889e-01
1.085212074894917889e-01
8.444784103935804032e-02
8.444784103935804032e-02
8.444784103935804032e-02
9.285441345051585749e-02
9.285441345051585749e-02
8.444784103935804032e-02
8.444784103935804032e-02
8.444784103935804032e-02
1.180741306839892951e-01
1.180741306839892951e-01
8.597630875047763965e-02
8.597630875047763965e-02
8.597630875047763965e-02
9.017959495605655518e-02
9.017959495605655518e-02
1.115781429117309875e-01
1.115781429117309875e-01
1.115781429117309875e-01
9.209017959495605088e-02
9.209017959495605088e-02
1.081390905617118786e-01
1.081390905617118786e-01
1.081390905617118786e-01
1.127244936950706905e-01
1.127244936950706905e-01
1.054642720672525763e-01
1.054642720672525763e-01
1.054642720672525763e-01
1.146350783339702001e-01
1.146350783339702001e-01
1.146350783339702001e-01
1.146350783339702001e-01
1.146350783339702001e-01
1.169277799006495921e-01
1.169277799006495921e-01
1.111960259839510912e-01
1.111960259839510912e-01
1.111960259839510912e-01
1.169277799006495921e-01
1.169277799006495921e-01
9.743981658387466938e-02
9.743981658387466938e-02
9.743981658387466938e-02
1.218952999617883004e-01
1.218952999617883004e-01
1.127244936950706905e-01
1.127244936950706905e-01
1.127244936950706905e-01
9.896828429499426871e-02
9.896828429499426871e-02
1.203668322506687011e-01
1.203668322506687011e-01
1.203668322506687011e-01
1.012609858616736747e-01
1.012609858616736747e-01
1.134887275506304971e-01
1.134887275506304971e-01
1.134887275506304971e-01
9.285441345051585749e-02
9.285441345051585749e-02
8.788689338937714923e-02
8.788689338937714923e-02
8.788689338937714923e-02
1.119602598395108839e-01
1.119602598395108839e-01
1.180741306839892951e-01
1.180741306839892951e-01
1.180741306839892951e-01
8.788689338937714923e-02
8.788689338937714923e-02
1.127244936950706905e-01
1.127244936950706905e-01
1.127244936950706905e-01
9.552923194497515980e-02
9.552923194497515980e-02
9.247229652273596112e-02
9.247229652273596112e-02
9.247229652273596112e-02
9.056171188383645154e-02
9.056171188383645154e-02
1.150171952617500964e-01
1.150171952617500964e-01
1.150171952617500964e-01
8.750477646159725287e-02
8.750477646159725287e-02
8.253725640045854461e-02
8.253725640045854461e-02
8.253725640045854461e-02
7.795185326709973272e-02
7.795185326709973272e-02
9.170806266717615451e-02
9.170806266717615451e-02
9.170806266717615451e-02
9.705769965609475913e-02
9.705769965609475913e-02
1.054642720672525763e-01
1.054642720672525763e-01
1.054642720672525763e-01
8.253725640045854461e-02
8.253725640045854461e-02
1.001146350783339717e-01
1.001146350783339717e-01
1.001146350783339717e-01
1.035536874283530806e-01
1.035536874283530806e-01
6.954528085594191555e-02
6.954528085594191555e-02
8.712265953381734263e-02
8.712265953381734263e-02
8.712265953381734263e-02
6.954528085594191555e-02
6.954528085594191555e-02
7.145586549484142513e-02
7.145586549484142513e-02
7.145586549484142513e-02
7.756973633931983636e-02
7.756973633931983636e-02
8.712265953381734263e-02
8.712265953381734263e-02
8.712265953381734263e-02
7.336645013374092084e-02
7.336645013374092084e-02
6.266717615590371160e-02
6.266717615590371160e-02
6.266717615590371160e-02
6.572411157814291027e-02
6.572411157814291027e-02
7.948032097821933206e-02
7.948032097821933206e-02
7.948032097821933206e-02
8.826901031715704560e-02
8.826901031715704560e-02
7.489491784486053405e-02
7.489491784486053405e-02
7.489491784486053405e-02
6.419564386702331094e-02
6.419564386702331094e-02
7.145586549484142513e-02
7.145586549484142513e-02
7.145586549484142513e-02
8.635842567825754990e-02
8.635842567825754990e-02
8.750477646159725287e-02
8.750477646159725287e-02
8.750477646159725287e-02
8.635842567825754990e-02
8.635842567825754990e-02
8.674054260603744626e-02
8.674054260603744626e-02
8.674054260603744626e-02
9.209017959495605088e-02
9.209017959495605088e-02
7.336645013374092084e-02
7.336645013374092084e-02
7.336645013374092084e-02
8.330149025601833734e-02
8.330149025601833734e-02
9.782193351165456574e-02
9.782193351165456574e-02
9.782193351165456574e-02
8.521207489491784692e-02
8.521207489491784692e-02
9.629346580053496640e-02
9.629346580053496640e-02
9.629346580053496640e-02
8.674054260603744626e-02
8.674054260603744626e-02
9.705769965609475913e-02
9.705769965609475913e-02
9.705769965609475913e-02
1.134887275506304971e-01
1.134887275506304971e-01
1.490256018341612476e-01
1.490256018341612476e-01
1.490256018341612476e-01
1.604891096675582773e-01
1.604891096675582773e-01
1.517004203286205499e-01
1.517004203286205499e-01
1.517004203286205499e-01
1.692777990064959770e-01
1.692777990064959770e-01
1.681314482231562879e-01
1.681314482231562879e-01
1.681314482231562879e-01
2.158960641956438609e-01
2.158960641956438609e-01
2.025219717233473493e-01
2.025219717233473493e-01
2.025219717233473493e-01
2.277416889568207869e-01
2.277416889568207869e-01
2.376767290790982035e-01
2.376767290790982035e-01
2.376767290790982035e-01
2.789453572793274549e-01
2.789453572793274549e-01
2.625143293847917447e-01
2.625143293847917447e-01
2.625143293847917447e-01
3.003439052350019289e-01
3.003439052350019289e-01
3.190676346962170173e-01
3.190676346962170173e-01
3.190676346962170173e-01
3.183034008406572246e-01
3.183034008406572246e-01
3.553687428353076161e-01
3.553687428353076161e-01
3.553687428353076161e-01
3.576614444019869943e-01
3.576614444019869943e-01
3.790599923576614683e-01
3.790599923576614683e-01
3.790599923576614683e-01
3.924340848299579521e-01
3.924340848299579521e-01
3.912877340466182630e-01
3.912877340466182630e-01
3.912877340466182630e-01
4.317921283912877217e-01
4.317921283912877217e-01
4.501337409247229693e-01
4.501337409247229693e-01
4.501337409247229693e-01
4.619793656858998676e-01
4.619793656858998676e-01
4.489873901413832802e-01
4.489873901413832802e-01
4.489873901413832802e-01
4.577760794803209521e-01
4.577760794803209521e-01
4.814673290026748043e-01
4.814673290026748043e-01
4.814673290026748043e-01
5.040122277416889673e-01
5.040122277416889673e-01
4.921666029805120135e-01
4.921666029805120135e-01
4.921666029805120135e-01
4.998089415361100518e-01
4.998089415361100518e-01
5.051585785250286564e-01
5.051585785250286564e-01
5.051585785250286564e-01
5.311425296140619423e-01
5.311425296140619423e-01
5.101260985861674202e-01
5.101260985861674202e-01
5.101260985861674202e-01
5.303782957585021496e-01
5.303782957585021496e-01
5.357279327474206987e-01
5.357279327474206987e-01
5.357279327474206987e-01
5.231180741306840076e-01
5.231180741306840076e-01
5.598012991975545027e-01
5.598012991975545027e-01
5.598012991975545027e-01
5.609476499808941918e-01
5.609476499808941918e-01
5.368742835307603878e-01
5.368742835307603878e-01
5.368742835307603878e-01
5.338173481085212169e-01
5.338173481085212169e-01
5.536874283530760499e-01
5.536874283530760499e-01
5.536874283530760499e-01
5.662972869698127409e-01
5.662972869698127409e-01
5.399312189529996697e-01
5.399312189529996697e-01
5.399312189529996697e-01
5.735575085976308829e-01
5.735575085976308829e-01
5.533053114252961535e-01
5.533053114252961535e-01
5.533053114252961535e-01
5.510126098586167753e-01
5.510126098586167753e-01
5.705005731753917120e-01
5.705005731753917120e-01
5.705005731753917120e-01
5.747038593809705720e-01
5.747038593809705720e-01
5.731753916698509865e-01
5.731753916698509865e-01
5.731753916698509865e-01
5.387848681696598696e-01
5.387848681696598696e-01
5.487199082919372861e-01
5.487199082919372861e-01
5.487199082919372861e-01
5.361100496752005951e-01
5.361100496752005951e-01
5.345815819640810096e-01
5.345815819640810096e-01
5.345815819640810096e-01
5.395491020252196623e-01
5.395491020252196623e-01
5.326709973251815278e-01
5.326709973251815278e-01
5.326709973251815278e-01
5.322888803974016314e-01
5.322888803974016314e-01
5.464272067252579079e-01
5.464272067252579079e-01
5.571264807030951172e-01
5.571264807030951172e-01
5.571264807030951172e-01
5.349636988918609060e-01
5.349636988918609060e-01
5.414596866641192552e-01
5.414596866641192552e-01
5.414596866641192552e-01
5.487199082919372861e-01
5.487199082919372861e-01
5.192969048528849330e-01
5.192969048528849330e-01
5.192969048528849330e-01
5.441345051585785297e-01
5.441345051585785297e-01
5.437523882307986334e-01
5.437523882307986334e-01
5.437523882307986334e-01
5.093618647306075164e-01
5.093618647306075164e-01
5.307604126862820459e-01
5.307604126862820459e-01
5.307604126862820459e-01
5.219717233473443185e-01
5.219717233473443185e-01
5.284677111196025567e-01
5.284677111196025567e-01
5.284677111196025567e-01
5.254107756973633858e-01
5.254107756973633858e-01
5.250286587695834895e-01
5.250286587695834895e-01
5.250286587695834895e-01
4.914023691249522208e-01
4.914023691249522208e-01
4.986625907527703627e-01
4.986625907527703627e-01
4.986625907527703627e-01
4.879633167749331535e-01
4.879633167749331535e-01
4.975162399694306181e-01
4.975162399694306181e-01
4.975162399694306181e-01
4.822315628582345970e-01
4.822315628582345970e-01
4.784103935804356333e-01
4.784103935804356333e-01
4.784103935804356333e-01
4.784103935804356333e-01
4.784103935804356333e-01
4.745892243026366142e-01
4.745892243026366142e-01
4.745892243026366142e-01
4.680932365303783205e-01
4.680932365303783205e-01
4.841421474971341343e-01
4.841421474971341343e-01
4.841421474971341343e-01
4.631257164692396122e-01
4.631257164692396122e-01
4.841421474971341343e-01
4.841421474971341343e-01
4.841421474971341343e-01
4.715322888803973878e-01
4.715322888803973878e-01
4.489873901413832802e-01
4.489873901413832802e-01
4.489873901413832802e-01
4.459304547191440538e-01
4.459304547191440538e-01
4.619793656858998676e-01
4.619793656858998676e-01
4.619793656858998676e-01
4.551012609858616775e-01
4.551012609858616775e-01
4.329384791746274108e-01
4.329384791746274108e-01
4.329384791746274108e-01
4.596866641192204894e-01
4.596866641192204894e-01
4.272067252579289098e-01
4.272067252579289098e-01
