1.578142911730989750e-01
1.501719526175009645e-01
1.501719526175009645e-01
1.501719526175009645e-01
1.585785250286587678e-01
1.585785250286587678e-01
1.685135651509361843e-01
1.685135651509361843e-01
1.685135651509361843e-01
1.654566297286969856e-01
1.654566297286969856e-01
1.627818112342376833e-01
1.627818112342376833e-01
1.627818112342376833e-01
1.482613679786014549e-01
1.482613679786014549e-01
1.474971341230416622e-01
1.474971341230416622e-01
1.474971341230416622e-01
1.497898356897210681e-01
1.497898356897210681e-01
1.666029805120366747e-01
1.666029805120366747e-01
1.666029805120366747e-01
1.669850974398165711e-01
1.669850974398165711e-01
1.410011463507833407e-01
1.410011463507833407e-01
1.410011463507833407e-01
1.459686664119220489e-01
1.459686664119220489e-01
1.543752388230798522e-01
1.543752388230798522e-01
1.543752388230798522e-01
1.650745128009170892e-01
1.650745128009170892e-01
1.517004203286205499e-01
1.517004203286205499e-01
1.517004203286205499e-01
1.543752388230798522e-01
1.543752388230798522e-01
1.425296140619029539e-01
1.425296140619029539e-01
1.425296140619029539e-01
1.440580817730225394e-01
1.440580817730225394e-01
1.620175773786778628e-01
1.620175773786778628e-01
1.620175773786778628e-01
1.410011463507833407e-01
1.410011463507833407e-01
1.597248758119984846e-01
1.597248758119984846e-01
1.597248758119984846e-01
1.666029805120366747e-01
1.666029805120366747e-01
1.490256018341612476e-01
1.490256018341612476e-01
1.490256018341612476e-01
1.379442109285441420e-01
1.379442109285441420e-01
1.574321742453190787e-01
1.574321742453190787e-01
1.574321742453190787e-01
1.620175773786778628e-01
1.620175773786778628e-01
1.394726786396637275e-01
1.394726786396637275e-01
1.394726786396637275e-01
1.452044325563622562e-01
1.452044325563622562e-01
1.593427588842185605e-01
1.593427588842185605e-01
1.593427588842185605e-01
1.574321742453190787e-01
1.574321742453190787e-01
1.482613679786014549e-01
1.482613679786014549e-01
1.482613679786014549e-01
1.623996943064577869e-01
1.623996943064577869e-01
1.536110049675200595e-01
1.536110049675200595e-01
1.536110049675200595e-01
1.455865494841421526e-01
1.455865494841421526e-01
1.482613679786014549e-01
1.482613679786014549e-01
1.482613679786014549e-01
1.581964081008788714e-01
1.581964081008788714e-01
1.497898356897210681e-01
1.497898356897210681e-01
1.497898356897210681e-01
1.367978601452044252e-01
1.367978601452044252e-01
1.406190294230034443e-01
1.406190294230034443e-01
1.406190294230034443e-01
1.352693924340848397e-01
1.352693924340848397e-01
1.471150171952617380e-01
1.471150171952617380e-01
1.471150171952617380e-01
1.597248758119984846e-01
1.597248758119984846e-01
1.604891096675582773e-01
1.604891096675582773e-01
1.604891096675582773e-01
1.429117309896828503e-01
1.429117309896828503e-01
1.398547955674436516e-01
1.398547955674436516e-01
1.398547955674436516e-01
1.547573557508597764e-01
1.547573557508597764e-01
1.383263278563240384e-01
1.383263278563240384e-01
1.578142911730989750e-01
1.578142911730989750e-01
1.578142911730989750e-01
1.524646541841803704e-01
1.524646541841803704e-01
1.623996943064577869e-01
1.623996943064577869e-01
1.623996943064577869e-01
1.436759648452426430e-01
1.436759648452426430e-01
1.555215896064195691e-01
1.555215896064195691e-01
1.555215896064195691e-01
1.501719526175009645e-01
1.501719526175009645e-01
1.429117309896828503e-01
1.429117309896828503e-01
1.429117309896828503e-01
1.394726786396637275e-01
1.394726786396637275e-01
1.452044325563622562e-01
1.452044325563622562e-01
1.452044325563622562e-01
1.394726786396637275e-01
1.394726786396637275e-01
1.574321742453190787e-01
1.574321742453190787e-01
1.574321742453190787e-01
1.383263278563240384e-01
1.383263278563240384e-01
1.410011463507833407e-01
1.410011463507833407e-01
1.410011463507833407e-01
1.501719526175009645e-01
1.501719526175009645e-01
1.627818112342376833e-01
1.627818112342376833e-01
1.627818112342376833e-01
1.482613679786014549e-01
1.482613679786014549e-01
1.410011463507833407e-01
1.410011463507833407e-01
1.410011463507833407e-01
1.452044325563622562e-01
1.452044325563622562e-01
1.379442109285441420e-01
1.379442109285441420e-01
1.379442109285441420e-01
1.375620940007642456e-01
1.375620940007642456e-01
1.589606419564386641e-01
1.589606419564386641e-01
1.589606419564386641e-01
1.536110049675200595e-01
1.536110049675200595e-01
1.597248758119984846e-01
1.597248758119984846e-01
1.597248758119984846e-01
1.345051585785250192e-01
1.345051585785250192e-01
1.608712265953381737e-01
1.608712265953381737e-01
1.608712265953381737e-01
1.345051585785250192e-01
1.345051585785250192e-01
1.482613679786014549e-01
1.482613679786014549e-01
1.482613679786014549e-01
1.371799770729843215e-01
1.371799770729843215e-01
1.352693924340848397e-01
1.352693924340848397e-01
1.352693924340848397e-01
1.497898356897210681e-01
1.497898356897210681e-01
1.585785250286587678e-01
1.585785250286587678e-01
1.585785250286587678e-01
1.494077187619411440e-01
1.494077187619411440e-01
1.585785250286587678e-01
1.585785250286587678e-01
1.585785250286587678e-01
1.421474971341230298e-01
1.421474971341230298e-01
1.413832632785632371e-01
1.413832632785632371e-01
1.413832632785632371e-01
1.562858234619793618e-01
1.562858234619793618e-01
1.497898356897210681e-01
1.497898356897210681e-01
1.497898356897210681e-01
1.578142911730989750e-01
1.578142911730989750e-01
1.486434849063813513e-01
1.486434849063813513e-01
1.486434849063813513e-01
1.413832632785632371e-01
1.413832632785632371e-01
1.417653802063431334e-01
1.417653802063431334e-01
1.417653802063431334e-01
1.581964081008788714e-01
1.581964081008788714e-01
1.394726786396637275e-01
1.394726786396637275e-01
1.394726786396637275e-01
1.371799770729843215e-01
1.371799770729843215e-01
1.612533435231180701e-01
1.612533435231180701e-01
1.612533435231180701e-01
1.440580817730225394e-01
1.440580817730225394e-01
1.612533435231180701e-01
1.612533435231180701e-01
1.612533435231180701e-01
1.666029805120366747e-01
1.666029805120366747e-01
1.406190294230034443e-01
1.406190294230034443e-01
1.406190294230034443e-01
1.494077187619411440e-01
1.494077187619411440e-01
1.669850974398165711e-01
1.669850974398165711e-01
1.669850974398165711e-01
1.486434849063813513e-01
1.486434849063813513e-01
1.738632021398547889e-01
1.738632021398547889e-01
1.738632021398547889e-01
1.822697745510126199e-01
1.822697745510126199e-01
1.807413068398930067e-01
1.807413068398930067e-01
1.807413068398930067e-01
1.666029805120366747e-01
1.666029805120366747e-01
1.692777990064959770e-01
1.692777990064959770e-01
1.692777990064959770e-01
1.765380206343140912e-01
1.765380206343140912e-01
1.780664883454337044e-01
1.780664883454337044e-01
1.780664883454337044e-01
1.983186855177684338e-01
1.983186855177684338e-01
2.097821933511654635e-01
2.097821933511654635e-01
2.097821933511654635e-01
2.113106610622850490e-01
2.113106610622850490e-01
2.128391287734046622e-01
2.128391287734046622e-01
2.128391287734046622e-01
2.235384027512418714e-01
2.235384027512418714e-01
2.162781811234237572e-01
2.162781811234237572e-01
2.162781811234237572e-01
2.250668704623614846e-01
2.250668704623614846e-01
2.426442491402369117e-01
2.426442491402369117e-01
2.426442491402369117e-01
2.464654184180359309e-01
2.464654184180359309e-01
2.384409629346579962e-01
2.384409629346579962e-01
2.384409629346579962e-01
2.640427970959113302e-01
2.640427970959113302e-01
2.586931601069927256e-01
2.586931601069927256e-01
2.586931601069927256e-01
2.797095911348873032e-01
2.797095911348873032e-01
2.854413450515858042e-01
2.854413450515858042e-01
2.854413450515858042e-01
2.915552158960642015e-01
2.915552158960642015e-01
3.018723729461215144e-01
3.018723729461215144e-01
3.018723729461215144e-01
2.915552158960642015e-01
2.915552158960642015e-01
2.991975544516621843e-01
2.991975544516621843e-01
2.991975544516621843e-01
3.026366068016813071e-01
3.026366068016813071e-01
3.056935422239205336e-01
3.056935422239205336e-01
3.056935422239205336e-01
3.190676346962170173e-01
3.190676346962170173e-01
3.240351547573557256e-01
3.240351547573557256e-01
3.186855177684371210e-01
3.186855177684371210e-01
3.186855177684371210e-01
3.255636224684753666e-01
3.255636224684753666e-01
3.404661826518914913e-01
3.404661826518914913e-01
3.404661826518914913e-01
3.320596102407336603e-01
3.320596102407336603e-01
3.469621704241497850e-01
3.469621704241497850e-01
3.469621704241497850e-01
3.496369889186091151e-01
3.496369889186091151e-01
3.614826136797860134e-01
3.614826136797860134e-01
3.614826136797860134e-01
3.538402751241879751e-01
3.538402751241879751e-01
3.542223920519679270e-01
3.542223920519679270e-01
3.542223920519679270e-01
3.748567061520825527e-01
3.748567061520825527e-01
3.607183798242262207e-01
3.607183798242262207e-01
3.607183798242262207e-01
3.656858998853649290e-01
3.656858998853649290e-01
3.790599923576614683e-01
3.790599923576614683e-01
3.790599923576614683e-01
3.771494077187619309e-01
3.771494077187619309e-01
3.729461215131830154e-01
3.729461215131830154e-01
3.729461215131830154e-01
3.874665647688192438e-01
3.874665647688192438e-01
3.782957585021016200e-01
3.782957585021016200e-01
3.782957585021016200e-01
3.977837218188765567e-01
3.977837218188765567e-01
3.729461215131830154e-01
3.729461215131830154e-01
3.729461215131830154e-01
3.859380970576996583e-01
3.859380970576996583e-01
3.886129155521589329e-01
3.886129155521589329e-01
3.886129155521589329e-01
3.847917462743599692e-01
3.847917462743599692e-01
3.912877340466182630e-01
3.912877340466182630e-01
3.912877340466182630e-01
3.905235001910584702e-01
3.905235001910584702e-01
3.790599923576614683e-01
3.790599923576614683e-01
3.790599923576614683e-01
3.931983186855177448e-01
3.931983186855177448e-01
3.874665647688192438e-01
3.874665647688192438e-01
3.874665647688192438e-01
3.977837218188765567e-01
3.977837218188765567e-01
3.794421092854413646e-01
3.794421092854413646e-01
3.794421092854413646e-01
4.054260603744745950e-01
4.054260603744745950e-01
4.073366450133740768e-01
4.073366450133740768e-01
4.073366450133740768e-01
4.069545280855941805e-01
4.069545280855941805e-01
4.004585403133358867e-01
4.004585403133358867e-01
4.004585403133358867e-01
4.035154757355751132e-01
4.035154757355751132e-01
3.943446694688574894e-01
3.943446694688574894e-01
3.943446694688574894e-01
3.993121895299961976e-01
3.993121895299961976e-01
3.847917462743599692e-01
3.847917462743599692e-01
3.847917462743599692e-01
3.951089033244172821e-01
3.951089033244172821e-01
3.798242262132212610e-01
3.798242262132212610e-01
3.798242262132212610e-01
3.867023309132594511e-01
3.867023309132594511e-01
3.928162017577378484e-01
3.928162017577378484e-01
3.928162017577378484e-01
4.000764233855559904e-01
4.000764233855559904e-01
3.840275124188001765e-01
3.840275124188001765e-01
3.840275124188001765e-01
3.794421092854413646e-01
3.794421092854413646e-01
3.974016048910966603e-01
3.974016048910966603e-01
3.974016048910966603e-01
3.970194879633167639e-01
3.970194879633167639e-01
3.947267863966373858e-01
3.947267863966373858e-01
3.947267863966373858e-01
3.951089033244172821e-01
3.951089033244172821e-01
3.752388230798624491e-01
3.752388230798624491e-01
3.752388230798624491e-01
3.912877340466182630e-01
3.912877340466182630e-01
3.924340848299579521e-01
3.924340848299579521e-01
3.924340848299579521e-01
3.847917462743599692e-01
3.847917462743599692e-01
3.710355368742835336e-01
3.710355368742835336e-01
3.710355368742835336e-01
3.637753152464653916e-01
3.637753152464653916e-01
3.775315246465418273e-01
3.775315246465418273e-01
3.775315246465418273e-01
3.844096293465800729e-01
3.844096293465800729e-01
3.649216660298051362e-01
3.649216660298051362e-01
3.649216660298051362e-01
3.637753152464653916e-01
3.637753152464653916e-01
3.710355368742835336e-01
3.710355368742835336e-01
3.710355368742835336e-01
3.725640045854031190e-01
3.725640045854031190e-01
3.618647306075659098e-01
3.618647306075659098e-01
3.618647306075659098e-01
3.760030569354222418e-01
3.760030569354222418e-01
3.633931983186854953e-01
3.633931983186854953e-01
3.633931983186854953e-01
3.626289644631257025e-01
3.626289644631257025e-01
3.484906381352693705e-01
3.484906381352693705e-01
3.484906381352693705e-01
3.473442873519296814e-01
3.473442873519296814e-01
3.542223920519679270e-01
3.542223920519679270e-01
3.542223920519679270e-01
3.454337027130301996e-01
3.454337027130301996e-01
3.530760412686281824e-01
3.530760412686281824e-01
3.530760412686281824e-01
3.393198318685518022e-01
3.393198318685518022e-01
3.481085212074894741e-01
3.481085212074894741e-01
3.481085212074894741e-01
3.416125334352311804e-01
3.416125334352311804e-01
3.343523118074130940e-01
3.343523118074130940e-01
3.343523118074130940e-01
3.408482995796713877e-01
3.408482995796713877e-01
3.366450133740924722e-01
3.366450133740924722e-01
3.366450133740924722e-01
3.427588842185708695e-01
3.427588842185708695e-01
3.389377149407718504e-01
3.389377149407718504e-01
3.389377149407718504e-01
3.267099732518150557e-01
3.267099732518150557e-01
3.328238440962934530e-01
3.328238440962934530e-01
3.328238440962934530e-01
3.316774933129537639e-01
3.316774933129537639e-01
3.320596102407336603e-01
3.320596102407336603e-01
3.320596102407336603e-01
3.118074130683989309e-01
3.118074130683989309e-01
3.259457393962552629e-01
3.259457393962552629e-01
3.133358807795185164e-01
3.133358807795185164e-01
3.133358807795185164e-01
3.018723729461215144e-01
3.018723729461215144e-01
3.064577760794803263e-01
3.064577760794803263e-01
3.064577760794803263e-01
3.175391669850974319e-01
3.175391669850974319e-01
2.999617883072220326e-01
2.999617883072220326e-01
2.999617883072220326e-01
3.091325945739396008e-01
3.091325945739396008e-01
3.076041268628200154e-01
3.076041268628200154e-01
3.076041268628200154e-01
2.827665265571264741e-01
2.827665265571264741e-01
2.927015666794038906e-01
2.927015666794038906e-01
2.927015666794038906e-01
2.877340466182651824e-01
2.877340466182651824e-01
2.988154375238822880e-01
2.988154375238822880e-01
2.988154375238822880e-01
2.777990064959877659e-01
2.777990064959877659e-01
2.892625143293847678e-01
2.892625143293847678e-01
2.892625143293847678e-01
2.766526557126480768e-01
2.766526557126480768e-01
2.766526557126480768e-01
2.766526557126480768e-01
2.766526557126480768e-01
2.804738249904470959e-01
2.804738249904470959e-01
2.724493695070691612e-01
2.724493695070691612e-01
2.724493695070691612e-01
2.575468093236530365e-01
2.575468093236530365e-01
2.667176155903706603e-01
2.667176155903706603e-01
2.667176155903706603e-01
2.770347726404279731e-01
2.770347726404279731e-01
2.590752770347726219e-01
2.590752770347726219e-01
2.590752770347726219e-01
2.586931601069927256e-01
2.586931601069927256e-01
2.632785632403515375e-01
2.632785632403515375e-01
2.632785632403515375e-01
2.472296522735957236e-01
2.472296522735957236e-01
2.529614061902942246e-01
2.529614061902942246e-01
2.529614061902942246e-01
2.472296522735957236e-01
2.472296522735957236e-01
2.602216278181123665e-01
2.602216278181123665e-01
2.602216278181123665e-01
2.617500955292319520e-01
2.617500955292319520e-01
2.407336645013374021e-01
2.407336645013374021e-01
2.407336645013374021e-01
2.384409629346579962e-01
2.384409629346579962e-01
2.564004585403133474e-01
2.564004585403133474e-01
2.564004585403133474e-01
2.392051967902178167e-01
2.392051967902178167e-01
2.338555598012991843e-01
2.338555598012991843e-01
2.338555598012991843e-01
2.395873137179977130e-01
2.395873137179977130e-01
2.529614061902942246e-01
2.529614061902942246e-01
2.529614061902942246e-01
2.548719908291937064e-01
2.548719908291937064e-01
2.552541077569736583e-01
2.552541077569736583e-01
2.552541077569736583e-01
2.541077569736339137e-01
2.541077569736339137e-01
2.327092090179594952e-01
2.327092090179594952e-01
2.327092090179594952e-01
2.288880397401604760e-01
2.288880397401604760e-01
2.277416889568207869e-01
2.277416889568207869e-01
2.277416889568207869e-01
2.521971723347344319e-01
2.521971723347344319e-01
2.487581199847153091e-01
2.487581199847153091e-01
2.487581199847153091e-01
2.273595720290408906e-01
2.273595720290408906e-01
2.414978983568972226e-01
2.414978983568972226e-01
2.414978983568972226e-01
2.457011845624761104e-01
2.457011845624761104e-01
2.311807413068398820e-01
2.311807413068398820e-01
2.311807413068398820e-01
2.441727168513565249e-01
2.441727168513565249e-01
2.357661444401986939e-01
2.357661444401986939e-01
2.357661444401986939e-01
2.258311043179212774e-01
2.258311043179212774e-01
2.453190676346962140e-01
2.453190676346962140e-01
2.453190676346962140e-01
2.411157814291172985e-01
2.411157814291172985e-01
2.208635842567825691e-01
2.208635842567825691e-01
2.208635842567825691e-01
2.418800152846771190e-01
2.418800152846771190e-01
2.434084829957967044e-01
2.434084829957967044e-01
2.434084829957967044e-01
2.380588460068780998e-01
2.380588460068780998e-01
2.395873137179977130e-01
2.395873137179977130e-01
2.395873137179977130e-01
2.350019105846389011e-01
2.350019105846389011e-01
2.262132212457011737e-01
2.262132212457011737e-01
2.262132212457011737e-01
2.143675964845242754e-01
2.143675964845242754e-01
2.388230798624378926e-01
2.388230798624378926e-01
2.388230798624378926e-01
2.273595720290408906e-01
2.273595720290408906e-01
2.216278181123423896e-01
2.216278181123423896e-01
2.216278181123423896e-01
2.227741688956820787e-01
2.227741688956820787e-01
2.128391287734046622e-01
2.128391287734046622e-01
2.128391287734046622e-01
2.208635842567825691e-01
2.208635842567825691e-01
2.296522735957202965e-01
2.296522735957202965e-01
2.296522735957202965e-01
2.204814673290026728e-01
2.204814673290026728e-01
2.227741688956820787e-01
2.227741688956820787e-01
2.227741688956820787e-01
2.227741688956820787e-01
2.227741688956820787e-01
2.166602980512036813e-01
2.166602980512036813e-01
2.166602980512036813e-01
2.235384027512418714e-01
2.235384027512418714e-01
2.170424149789835777e-01
2.170424149789835777e-01
2.170424149789835777e-01
2.178066488345433704e-01
2.178066488345433704e-01
2.063431410011463407e-01
2.063431410011463407e-01
2.063431410011463407e-01
2.151318303400840681e-01
2.151318303400840681e-01
2.025219717233473493e-01
2.025219717233473493e-01
2.025219717233473493e-01
2.254489873901413810e-01
2.254489873901413810e-01
2.254489873901413810e-01
2.254489873901413810e-01
2.254489873901413810e-01
2.051967902178066516e-01
2.051967902178066516e-01
2.124570118456247658e-01
2.124570118456247658e-01
2.231562858234619751e-01
2.231562858234619751e-01
2.231562858234619751e-01
1.960259839510890278e-01
1.960259839510890278e-01
2.002292701566679434e-01
2.002292701566679434e-01
2.002292701566679434e-01
1.929690485288498292e-01
1.929690485288498292e-01
1.948796331677493388e-01
1.948796331677493388e-01
1.948796331677493388e-01
2.036683225066870384e-01
2.036683225066870384e-01
2.139854795567443513e-01
2.139854795567443513e-01
2.139854795567443513e-01
2.147497134123041718e-01
2.147497134123041718e-01
2.113106610622850490e-01
2.113106610622850490e-01
2.113106610622850490e-01
1.941153993121895183e-01
1.941153993121895183e-01
2.139854795567443513e-01
2.139854795567443513e-01
2.139854795567443513e-01
1.918226977455101123e-01
1.918226977455101123e-01
1.941153993121895183e-01
1.941153993121895183e-01
1.941153993121895183e-01
2.097821933511654635e-01
2.097821933511654635e-01
2.059610240733664444e-01
2.059610240733664444e-01
2.059610240733664444e-01
2.074894917844860576e-01
2.074894917844860576e-01
1.864730607565915077e-01
1.864730607565915077e-01
1.864730607565915077e-01
1.887657623232709136e-01
1.887657623232709136e-01
1.944975162399694424e-01
1.944975162399694424e-01
1.944975162399694424e-01
2.013756209400076325e-01
2.013756209400076325e-01
1.876194115399312246e-01
1.876194115399312246e-01
1.876194115399312246e-01
1.964081008788689242e-01
1.964081008788689242e-01
1.834161253343523090e-01
1.834161253343523090e-01
1.834161253343523090e-01
2.063431410011463407e-01
2.063431410011463407e-01
1.818876576232326958e-01
1.818876576232326958e-01
1.818876576232326958e-01
1.788307222009934971e-01
1.788307222009934971e-01
1.883836453954910173e-01
1.883836453954910173e-01
1.883836453954910173e-01
1.773022544898739117e-01
1.773022544898739117e-01
1.776843714176538080e-01
1.776843714176538080e-01
1.776843714176538080e-01
1.952617500955292351e-01
1.952617500955292351e-01
1.941153993121895183e-01
1.941153993121895183e-01
1.941153993121895183e-01
1.990829193733282265e-01
1.990829193733282265e-01
1.738632021398547889e-01
1.738632021398547889e-01
1.738632021398547889e-01
1.887657623232709136e-01
1.887657623232709136e-01
1.952617500955292351e-01
1.952617500955292351e-01
1.952617500955292351e-01
1.799770729843332140e-01
1.799770729843332140e-01
1.914405808177302160e-01
1.914405808177302160e-01
1.914405808177302160e-01
1.967902178066488483e-01
1.967902178066488483e-01
1.746274359954146094e-01
1.746274359954146094e-01
1.746274359954146094e-01
1.757737867787542985e-01
1.757737867787542985e-01
1.696599159342759011e-01
1.696599159342759011e-01
1.696599159342759011e-01
1.700420328620557975e-01
1.700420328620557975e-01
1.669850974398165711e-01
1.669850974398165711e-01
1.669850974398165711e-01
1.922048146732900364e-01
1.922048146732900364e-01
1.681314482231562879e-01
1.681314482231562879e-01
1.681314482231562879e-01
1.742453190676346853e-01
1.742453190676346853e-01
1.654566297286969856e-01
1.654566297286969856e-01
1.654566297286969856e-01
1.669850974398165711e-01
1.669850974398165711e-01
1.692777990064959770e-01
1.692777990064959770e-01
1.692777990064959770e-01
1.608712265953381737e-01
1.608712265953381737e-01
1.792128391287733935e-01
1.792128391287733935e-01
1.792128391287733935e-01
1.727168513565150998e-01
1.727168513565150998e-01
1.753916698509744021e-01
1.753916698509744021e-01
1.753916698509744021e-01
1.654566297286969856e-01
1.654566297286969856e-01
1.700420328620557975e-01
1.700420328620557975e-01
1.700420328620557975e-01
1.662208635842567783e-01
1.662208635842567783e-01
1.815055406954527994e-01
1.815055406954527994e-01
1.815055406954527994e-01
1.562858234619793618e-01
1.562858234619793618e-01
1.524646541841803704e-01
1.524646541841803704e-01
1.524646541841803704e-01
1.562858234619793618e-01
1.562858234619793618e-01
1.593427588842185605e-01
1.593427588842185605e-01
1.593427588842185605e-01
1.757737867787542985e-01
1.757737867787542985e-01
1.524646541841803704e-01
1.524646541841803704e-01
1.524646541841803704e-01
1.604891096675582773e-01
1.604891096675582773e-01
1.528467711119602668e-01
1.528467711119602668e-01
1.528467711119602668e-01
1.608712265953381737e-01
1.608712265953381737e-01
1.765380206343140912e-01
1.765380206343140912e-01
1.765380206343140912e-01
1.532288880397401631e-01
1.532288880397401631e-01
1.566679403897592582e-01
1.566679403897592582e-01
1.566679403897592582e-01
1.753916698509744021e-01
1.753916698509744021e-01
1.555215896064195691e-01
1.555215896064195691e-01
1.555215896064195691e-01
1.666029805120366747e-01
1.666029805120366747e-01
1.623996943064577869e-01
1.623996943064577869e-01
1.623996943064577869e-01
1.685135651509361843e-01
1.685135651509361843e-01
1.551394726786396727e-01
1.551394726786396727e-01
1.551394726786396727e-01
1.562858234619793618e-01
1.562858234619793618e-01
1.490256018341612476e-01
1.490256018341612476e-01
1.490256018341612476e-01
1.517004203286205499e-01
1.517004203286205499e-01
1.551394726786396727e-01
1.551394726786396727e-01
1.551394726786396727e-01
1.474971341230416622e-01
1.474971341230416622e-01
1.566679403897592582e-01
1.566679403897592582e-01
1.662208635842567783e-01
1.662208635842567783e-01
1.662208635842567783e-01
1.524646541841803704e-01
1.524646541841803704e-01
1.497898356897210681e-01
1.497898356897210681e-01
1.497898356897210681e-01
1.704241497898356938e-01
1.704241497898356938e-01
1.471150171952617380e-01
1.471150171952617380e-01
1.471150171952617380e-01
1.444401987008024357e-01
1.444401987008024357e-01
1.708062667176155902e-01
1.708062667176155902e-01
1.708062667176155902e-01
1.520825372564004463e-01
1.520825372564004463e-01
1.685135651509361843e-01
1.685135651509361843e-01
1.685135651509361843e-01
1.704241497898356938e-01
1.704241497898356938e-01
1.455865494841421526e-01
1.455865494841421526e-01
1.455865494841421526e-01
1.444401987008024357e-01
1.444401987008024357e-01
1.692777990064959770e-01
1.692777990064959770e-01
1.692777990064959770e-01
1.444401987008024357e-01
1.444401987008024357e-01
1.421474971341230298e-01
1.421474971341230298e-01
1.421474971341230298e-01
1.666029805120366747e-01
1.666029805120366747e-01
1.608712265953381737e-01
1.608712265953381737e-01
1.608712265953381737e-01
1.482613679786014549e-01
1.482613679786014549e-01
1.482613679786014549e-01
1.482613679786014549e-01
1.482613679786014549e-01
1.452044325563622562e-01
1.452044325563622562e-01
1.597248758119984846e-01
1.597248758119984846e-01
1.597248758119984846e-01
1.429117309896828503e-01
1.429117309896828503e-01
1.501719526175009645e-01
1.501719526175009645e-01
1.501719526175009645e-01
1.593427588842185605e-01
1.593427588842185605e-01
1.574321742453190787e-01
1.574321742453190787e-01
1.574321742453190787e-01
1.478792510508215585e-01
1.478792510508215585e-01
1.604891096675582773e-01
1.604891096675582773e-01
1.604891096675582773e-01
1.432938479174627466e-01
1.432938479174627466e-01
1.486434849063813513e-01
1.486434849063813513e-01
1.486434849063813513e-01
1.646923958731371929e-01
1.646923958731371929e-01
1.494077187619411440e-01
1.494077187619411440e-01
1.494077187619411440e-01
1.482613679786014549e-01
1.482613679786014549e-01
1.688956820787160806e-01
1.688956820787160806e-01
1.688956820787160806e-01
1.513183034008406536e-01
1.513183034008406536e-01
1.574321742453190787e-01
1.574321742453190787e-01
1.574321742453190787e-01
1.524646541841803704e-01
1.524646541841803704e-01
1.524646541841803704e-01
1.524646541841803704e-01
1.524646541841803704e-01
1.578142911730989750e-01
1.578142911730989750e-01
1.436759648452426430e-01
1.436759648452426430e-01
1.436759648452426430e-01
1.513183034008406536e-01
1.513183034008406536e-01
1.612533435231180701e-01
1.612533435231180701e-01
1.612533435231180701e-01
1.410011463507833407e-01
1.410011463507833407e-01
1.559037065341994654e-01
1.559037065341994654e-01
1.559037065341994654e-01
1.608712265953381737e-01
1.608712265953381737e-01
1.398547955674436516e-01
1.398547955674436516e-01
1.398547955674436516e-01
1.429117309896828503e-01
1.429117309896828503e-01
1.474971341230416622e-01
1.474971341230416622e-01
1.474971341230416622e-01
1.654566297286969856e-01
1.654566297286969856e-01
1.539931218952999559e-01
1.539931218952999559e-01
1.539931218952999559e-01
1.410011463507833407e-01
1.410011463507833407e-01
1.543752388230798522e-01
1.543752388230798522e-01
1.543752388230798522e-01
1.387084447841039347e-01
1.387084447841039347e-01
1.505540695452808608e-01
1.505540695452808608e-01
1.505540695452808608e-01
1.444401987008024357e-01
1.444401987008024357e-01
1.627818112342376833e-01
1.627818112342376833e-01
1.627818112342376833e-01
1.490256018341612476e-01
1.490256018341612476e-01
1.410011463507833407e-01
1.410011463507833407e-01
1.410011463507833407e-01
1.429117309896828503e-01
1.429117309896828503e-01
1.646923958731371929e-01
1.646923958731371929e-01
1.646923958731371929e-01
1.608712265953381737e-01
1.608712265953381737e-01
1.463507833397019453e-01
1.463507833397019453e-01
1.463507833397019453e-01
1.417653802063431334e-01
1.417653802063431334e-01
1.486434849063813513e-01
1.486434849063813513e-01
1.486434849063813513e-01
1.364157432174245288e-01
1.364157432174245288e-01
1.421474971341230298e-01
1.421474971341230298e-01
1.421474971341230298e-01
1.539931218952999559e-01
1.539931218952999559e-01
1.375620940007642456e-01
1.375620940007642456e-01
1.375620940007642456e-01
1.612533435231180701e-01
1.612533435231180701e-01
1.643102789453572687e-01
1.643102789453572687e-01
1.643102789453572687e-01
1.383263278563240384e-01
1.383263278563240384e-01
1.394726786396637275e-01
1.394726786396637275e-01
1.394726786396637275e-01
1.509361864730607572e-01
1.509361864730607572e-01
1.566679403897592582e-01
1.566679403897592582e-01
1.566679403897592582e-01
1.662208635842567783e-01
1.662208635842567783e-01
1.650745128009170892e-01
1.650745128009170892e-01
1.650745128009170892e-01
1.467329002674818417e-01
1.467329002674818417e-01
1.578142911730989750e-01
1.578142911730989750e-01
1.578142911730989750e-01
1.463507833397019453e-01
1.463507833397019453e-01
1.727168513565150998e-01
1.727168513565150998e-01
1.727168513565150998e-01
1.715705005731753829e-01
1.715705005731753829e-01
1.696599159342759011e-01
1.696599159342759011e-01
1.696599159342759011e-01
1.604891096675582773e-01
1.604891096675582773e-01
1.604891096675582773e-01
1.604891096675582773e-01
1.880015284677111209e-01
1.880015284677111209e-01
1.880015284677111209e-01
1.730989682842949962e-01
1.730989682842949962e-01
1.719526175009552793e-01
1.719526175009552793e-01
1.719526175009552793e-01
1.803591899121131104e-01
1.803591899121131104e-01
2.036683225066870384e-01
2.036683225066870384e-01
2.036683225066870384e-01
1.883836453954910173e-01
1.883836453954910173e-01
2.193351165456629837e-01
2.193351165456629837e-01
2.193351165456629837e-01
2.162781811234237572e-01
2.162781811234237572e-01
2.174245319067634741e-01
2.174245319067634741e-01
2.174245319067634741e-01
2.361482613679785902e-01
2.361482613679785902e-01
2.418800152846771190e-01
2.418800152846771190e-01
2.418800152846771190e-01
2.281238058846006833e-01
2.281238058846006833e-01
2.353840275124187975e-01
2.353840275124187975e-01
2.353840275124187975e-01
2.636606801681314338e-01
2.636606801681314338e-01
2.636606801681314338e-01
2.636606801681314338e-01
2.636606801681314338e-01
2.800917080626671996e-01
2.800917080626671996e-01
2.720672525792892649e-01
2.720672525792892649e-01
2.720672525792892649e-01
2.674818494459304530e-01
2.674818494459304530e-01
2.755063049293083877e-01
2.755063049293083877e-01
2.755063049293083877e-01
2.884982804738249751e-01
2.884982804738249751e-01
2.957585021016431170e-01
2.957585021016431170e-01
2.957585021016431170e-01
2.984333205961023916e-01
2.984333205961023916e-01
3.064577760794803263e-01
3.064577760794803263e-01
3.064577760794803263e-01
3.221245701184562438e-01
3.221245701184562438e-01
3.144822315628582610e-01
3.144822315628582610e-01
3.144822315628582610e-01
3.236530378295758292e-01
3.236530378295758292e-01
3.362628964463125758e-01
3.362628964463125758e-01
3.362628964463125758e-01
3.500191058463890115e-01
3.500191058463890115e-01
3.324417271685135566e-01
3.324417271685135566e-01
3.324417271685135566e-01
3.515475735575085969e-01
3.515475735575085969e-01
3.584256782575467870e-01
3.584256782575467870e-01
3.584256782575467870e-01
3.416125334352311804e-01
3.416125334352311804e-01
3.695070691631639481e-01
3.695070691631639481e-01
3.695070691631639481e-01
3.549866259075277197e-01
3.549866259075277197e-01
3.683607183798242035e-01
3.683607183798242035e-01
3.683607183798242035e-01
3.599541459686664280e-01
3.599541459686664280e-01
3.656858998853649290e-01
3.656858998853649290e-01
3.656858998853649290e-01
3.675964845242644108e-01
3.675964845242644108e-01
3.672143675964845144e-01
3.672143675964845144e-01
3.672143675964845144e-01
3.649216660298051362e-01
3.649216660298051362e-01
3.870844478410393474e-01
3.870844478410393474e-01
3.870844478410393474e-01
3.809705769965609501e-01
3.809705769965609501e-01
3.977837218188765567e-01
3.977837218188765567e-01
3.977837218188765567e-01
3.775315246465418273e-01
3.775315246465418273e-01
3.756209400076423455e-01
3.756209400076423455e-01
3.756209400076423455e-01
4.038975926633550095e-01
4.038975926633550095e-01
4.016048910966755758e-01
4.016048910966755758e-01
4.016048910966755758e-01
4.061902942300343877e-01
4.061902942300343877e-01
4.027512418800152649e-01
4.027512418800152649e-01
4.027512418800152649e-01
4.077187619411539732e-01
4.077187619411539732e-01
4.016048910966755758e-01
4.016048910966755758e-01
4.016048910966755758e-01
4.103935804356133032e-01
4.103935804356133032e-01
3.920519679021780557e-01
3.920519679021780557e-01
3.920519679021780557e-01
3.928162017577378484e-01
3.928162017577378484e-01
4.077187619411539732e-01
4.077187619411539732e-01
4.077187619411539732e-01
3.912877340466182630e-01
3.912877340466182630e-01
4.123041650745127851e-01
4.123041650745127851e-01
4.123041650745127851e-01
4.092472296522736142e-01
4.092472296522736142e-01
3.928162017577378484e-01
3.928162017577378484e-01
3.928162017577378484e-01
4.050439434466946986e-01
4.050439434466946986e-01
3.912877340466182630e-01
3.912877340466182630e-01
3.912877340466182630e-01
4.054260603744745950e-01
4.054260603744745950e-01
4.042797095911349059e-01
4.042797095911349059e-01
4.042797095911349059e-01
3.893771494077187811e-01
3.893771494077187811e-01
3.886129155521589329e-01
3.886129155521589329e-01
3.886129155521589329e-01
3.962552541077569712e-01
3.962552541077569712e-01
3.924340848299579521e-01
3.924340848299579521e-01
3.924340848299579521e-01
3.889950324799388848e-01
3.889950324799388848e-01
4.058081773022544914e-01
4.058081773022544914e-01
4.058081773022544914e-01
3.889950324799388848e-01
3.889950324799388848e-01
4.027512418800152649e-01
4.027512418800152649e-01
4.027512418800152649e-01
4.012227741688956795e-01
4.012227741688956795e-01
4.069545280855941805e-01
4.069545280855941805e-01
4.069545280855941805e-01
3.874665647688192438e-01
3.874665647688192438e-01
3.928162017577378484e-01
3.928162017577378484e-01
3.928162017577378484e-01
3.798242262132212610e-01
3.798242262132212610e-01
3.901413832632785739e-01
3.901413832632785739e-01
3.901413832632785739e-01
3.905235001910584702e-01
3.905235001910584702e-01
3.844096293465800729e-01
3.844096293465800729e-01
3.844096293465800729e-01
3.748567061520825527e-01
3.748567061520825527e-01
3.897592663354986775e-01
3.897592663354986775e-01
3.943446694688574894e-01
3.943446694688574894e-01
3.943446694688574894e-01
3.714176538020634299e-01
3.714176538020634299e-01
3.916698509743981593e-01
3.916698509743981593e-01
3.916698509743981593e-01
3.714176538020634299e-01
3.714176538020634299e-01
3.916698509743981593e-01
3.916698509743981593e-01
3.916698509743981593e-01
3.649216660298051362e-01
3.649216660298051362e-01
3.798242262132212610e-01
3.798242262132212610e-01
3.798242262132212610e-01
3.633931983186854953e-01
3.633931983186854953e-01
3.798242262132212610e-01
3.798242262132212610e-01
3.798242262132212610e-01
3.725640045854031190e-01
3.725640045854031190e-01
3.607183798242262207e-01
3.607183798242262207e-01
3.607183798242262207e-01
3.618647306075659098e-01
3.618647306075659098e-01
3.641574321742453435e-01
3.641574321742453435e-01
3.641574321742453435e-01
3.561329766908674088e-01
3.561329766908674088e-01
3.599541459686664280e-01
3.599541459686664280e-01
3.599541459686664280e-01
3.733282384409629118e-01
3.733282384409629118e-01
3.496369889186091151e-01
3.496369889186091151e-01
3.496369889186091151e-01
3.603362628964463243e-01
3.603362628964463243e-01
3.656858998853649290e-01
3.656858998853649290e-01
3.656858998853649290e-01
3.565150936186473052e-01
3.565150936186473052e-01
3.461979365685899923e-01
3.461979365685899923e-01
3.461979365685899923e-01
3.439052350019105586e-01
3.439052350019105586e-01
3.335880779518532457e-01
3.335880779518532457e-01
3.335880779518532457e-01
3.328238440962934530e-01
3.328238440962934530e-01
3.354986625907527831e-01
3.354986625907527831e-01
3.354986625907527831e-01
3.358807795185326794e-01
3.358807795185326794e-01
3.251815055406954702e-01
3.251815055406954702e-01
3.251815055406954702e-01
3.316774933129537639e-01
3.316774933129537639e-01
3.297669086740542821e-01
3.297669086740542821e-01
3.297669086740542821e-01
3.374092472296522649e-01
3.374092472296522649e-01
3.312953763851738676e-01
3.312953763851738676e-01
3.312953763851738676e-01
3.263278563240351593e-01
3.263278563240351593e-01
3.202139854795567619e-01
3.202139854795567619e-01
3.202139854795567619e-01
3.221245701184562438e-01
3.221245701184562438e-01
3.148643484906381573e-01
3.148643484906381573e-01
3.148643484906381573e-01
3.167749331295376392e-01
3.167749331295376392e-01
3.121895299961788273e-01
3.121895299961788273e-01
3.121895299961788273e-01
2.961406190294230134e-01
2.961406190294230134e-01
2.812380588460068886e-01
2.812380588460068886e-01
2.812380588460068886e-01
2.812380588460068886e-01
2.812380588460068886e-01
3.007260221627818253e-01
3.007260221627818253e-01
3.007260221627818253e-01
2.946121513183034279e-01
2.946121513183034279e-01
2.965227359572029098e-01
2.965227359572029098e-01
2.965227359572029098e-01
2.693924340848299348e-01
2.693924340848299348e-01
2.682460833014902457e-01
2.682460833014902457e-01
2.682460833014902457e-01
2.770347726404279731e-01
2.770347726404279731e-01
2.632785632403515375e-01
2.632785632403515375e-01
2.632785632403515375e-01
2.816201757737867850e-01
2.816201757737867850e-01
2.739778372181887467e-01
2.739778372181887467e-01
2.739778372181887467e-01
2.751241880015284913e-01
2.751241880015284913e-01
2.705387848681696794e-01
2.705387848681696794e-01
2.705387848681696794e-01
2.583110431792128292e-01
2.583110431792128292e-01
2.625143293847917447e-01
2.625143293847917447e-01
2.625143293847917447e-01
2.460833014902560067e-01
2.460833014902560067e-01
2.636606801681314338e-01
2.636606801681314338e-01
2.636606801681314338e-01
2.579289262514329328e-01
2.579289262514329328e-01
2.464654184180359309e-01
2.464654184180359309e-01
2.464654184180359309e-01
2.407336645013374021e-01
2.407336645013374021e-01
2.430263660680168081e-01
2.430263660680168081e-01
2.430263660680168081e-01
2.533435231180741209e-01
2.533435231180741209e-01
2.399694306457776094e-01
2.399694306457776094e-01
2.399694306457776094e-01
2.430263660680168081e-01
2.430263660680168081e-01
2.380588460068780998e-01
2.380588460068780998e-01
2.380588460068780998e-01
2.525792892625143282e-01
2.525792892625143282e-01
2.357661444401986939e-01
2.357661444401986939e-01
2.357661444401986939e-01
2.334734428735192879e-01
2.334734428735192879e-01
2.533435231180741209e-01
2.533435231180741209e-01
2.533435231180741209e-01
2.510508215513947428e-01
2.510508215513947428e-01
2.346197936568590048e-01
2.346197936568590048e-01
2.346197936568590048e-01
2.437905999235766008e-01
2.437905999235766008e-01
2.491402369124952332e-01
2.491402369124952332e-01
2.491402369124952332e-01
2.307986243790599856e-01
2.307986243790599856e-01
2.223920519679021823e-01
2.223920519679021823e-01
2.223920519679021823e-01
2.445548337791364213e-01
2.445548337791364213e-01
2.281238058846006833e-01
2.281238058846006833e-01
2.281238058846006833e-01
2.403515475735575058e-01
2.403515475735575058e-01
2.499044707680550259e-01
2.499044707680550259e-01
2.499044707680550259e-01
2.483760030569354127e-01
2.483760030569354127e-01
2.204814673290026728e-01
2.204814673290026728e-01
2.204814673290026728e-01
2.430263660680168081e-01
2.430263660680168081e-01
2.460833014902560067e-01
2.460833014902560067e-01
2.445548337791364213e-01
2.445548337791364213e-01
2.445548337791364213e-01
2.395873137179977130e-01
2.395873137179977130e-01
2.204814673290026728e-01
2.204814673290026728e-01
2.204814673290026728e-01
2.342376767290791084e-01
2.342376767290791084e-01
2.422621322124570153e-01
2.422621322124570153e-01
2.422621322124570153e-01
2.158960641956438609e-01
2.158960641956438609e-01
2.315628582346198061e-01
2.315628582346198061e-01
2.315628582346198061e-01
2.189529996178830595e-01
2.189529996178830595e-01
2.166602980512036813e-01
2.166602980512036813e-01
2.166602980512036813e-01
2.311807413068398820e-01
2.311807413068398820e-01
2.120748949178448695e-01
2.120748949178448695e-01
2.120748949178448695e-01
2.216278181123423896e-01
2.216278181123423896e-01
2.330913259457393916e-01
2.330913259457393916e-01
2.330913259457393916e-01
2.090179594956056430e-01
2.090179594956056430e-01
2.143675964845242754e-01
2.143675964845242754e-01
2.143675964845242754e-01
2.323270920901795988e-01
2.323270920901795988e-01
2.090179594956056430e-01
2.090179594956056430e-01
2.090179594956056430e-01
2.311807413068398820e-01
2.311807413068398820e-01
2.311807413068398820e-01
2.311807413068398820e-01
2.311807413068398820e-01
2.319449751623997025e-01
2.319449751623997025e-01
2.082537256400458503e-01
2.082537256400458503e-01
2.082537256400458503e-01
2.097821933511654635e-01
2.097821933511654635e-01
2.063431410011463407e-01
2.063431410011463407e-01
2.063431410011463407e-01
2.258311043179212774e-01
2.258311043179212774e-01
2.273595720290408906e-01
2.273595720290408906e-01
2.273595720290408906e-01
2.124570118456247658e-01
2.124570118456247658e-01
2.181887657623232668e-01
2.181887657623232668e-01
2.181887657623232668e-01
2.025219717233473493e-01
2.025219717233473493e-01
2.128391287734046622e-01
2.128391287734046622e-01
2.128391287734046622e-01
2.105464272067252562e-01
2.105464272067252562e-01
2.086358425678257467e-01
2.086358425678257467e-01
2.086358425678257467e-01
1.994650363011081506e-01
1.994650363011081506e-01
2.086358425678257467e-01
2.086358425678257467e-01
2.086358425678257467e-01
1.929690485288498292e-01
1.929690485288498292e-01
2.151318303400840681e-01
2.151318303400840681e-01
2.151318303400840681e-01
2.002292701566679434e-01
2.002292701566679434e-01
1.922048146732900364e-01
1.922048146732900364e-01
1.922048146732900364e-01
2.097821933511654635e-01
2.097821933511654635e-01
2.151318303400840681e-01
2.151318303400840681e-01
2.151318303400840681e-01
1.933511654566297255e-01
1.933511654566297255e-01
2.051967902178066516e-01
2.051967902178066516e-01
2.051967902178066516e-01
2.116927779900649731e-01
2.116927779900649731e-01
2.120748949178448695e-01
2.120748949178448695e-01
2.120748949178448695e-01
2.101643102789453599e-01
2.101643102789453599e-01
2.036683225066870384e-01
2.036683225066870384e-01
2.036683225066870384e-01
1.845624761176920259e-01
1.845624761176920259e-01
1.834161253343523090e-01
1.834161253343523090e-01
1.834161253343523090e-01
2.055789071455865480e-01
2.055789071455865480e-01
2.040504394344669348e-01
2.040504394344669348e-01
2.040504394344669348e-01
2.017577378677875566e-01
2.017577378677875566e-01
2.025219717233473493e-01
2.025219717233473493e-01
2.025219717233473493e-01
1.860909438288116113e-01
1.860909438288116113e-01
1.899121131066106305e-01
1.899121131066106305e-01
1.899121131066106305e-01
2.006113870844478397e-01
2.006113870844478397e-01
1.952617500955292351e-01
1.952617500955292351e-01
1.952617500955292351e-01
1.826518914787925163e-01
1.826518914787925163e-01
2.013756209400076325e-01
2.013756209400076325e-01
2.013756209400076325e-01
1.757737867787542985e-01
1.757737867787542985e-01
1.792128391287733935e-01
1.792128391287733935e-01
1.792128391287733935e-01
1.948796331677493388e-01
1.948796331677493388e-01
1.979365685899885374e-01
1.979365685899885374e-01
1.979365685899885374e-01
1.902942300343905269e-01
1.902942300343905269e-01
1.730989682842949962e-01
1.730989682842949962e-01
1.730989682842949962e-01
1.818876576232326958e-01
1.818876576232326958e-01
1.822697745510126199e-01
1.822697745510126199e-01
1.822697745510126199e-01
1.761559037065341948e-01
1.761559037065341948e-01
1.841803591899121018e-01
1.841803591899121018e-01
1.841803591899121018e-01
1.658387466564768820e-01
1.658387466564768820e-01
1.692777990064959770e-01
1.692777990064959770e-01
1.692777990064959770e-01
1.841803591899121018e-01
1.841803591899121018e-01
1.650745128009170892e-01
1.650745128009170892e-01
1.650745128009170892e-01
1.669850974398165711e-01
1.669850974398165711e-01
1.841803591899121018e-01
1.841803591899121018e-01
1.841803591899121018e-01
1.872372946121513282e-01
1.872372946121513282e-01
1.704241497898356938e-01
1.704241497898356938e-01
1.704241497898356938e-01
1.623996943064577869e-01
1.623996943064577869e-01
1.669850974398165711e-01
1.669850974398165711e-01
1.669850974398165711e-01
1.837982422621322054e-01
1.837982422621322054e-01
1.723347344287352034e-01
1.723347344287352034e-01
1.723347344287352034e-01
1.608712265953381737e-01
1.608712265953381737e-01
1.616354604508979664e-01
1.616354604508979664e-01
1.616354604508979664e-01
1.685135651509361843e-01
1.685135651509361843e-01
1.536110049675200595e-01
1.536110049675200595e-01
1.543752388230798522e-01
1.543752388230798522e-01
1.543752388230798522e-01
1.528467711119602668e-01
1.528467711119602668e-01
1.784486052732136008e-01
1.784486052732136008e-01
1.784486052732136008e-01
1.597248758119984846e-01
1.597248758119984846e-01
1.604891096675582773e-01
1.604891096675582773e-01
1.604891096675582773e-01
1.742453190676346853e-01
1.742453190676346853e-01
1.513183034008406536e-01
1.513183034008406536e-01
1.513183034008406536e-01
1.746274359954146094e-01
1.746274359954146094e-01
1.631639281620175796e-01
1.631639281620175796e-01
1.631639281620175796e-01
1.494077187619411440e-01
1.494077187619411440e-01
1.627818112342376833e-01
1.627818112342376833e-01
1.627818112342376833e-01
1.715705005731753829e-01
1.715705005731753829e-01
1.666029805120366747e-01
1.666029805120366747e-01
1.666029805120366747e-01
1.704241497898356938e-01
1.704241497898356938e-01
1.478792510508215585e-01
1.478792510508215585e-01
1.478792510508215585e-01
1.696599159342759011e-01
1.696599159342759011e-01
1.459686664119220489e-01
1.459686664119220489e-01
1.459686664119220489e-01
1.459686664119220489e-01
1.459686664119220489e-01
1.627818112342376833e-01
1.627818112342376833e-01
1.627818112342376833e-01
1.425296140619029539e-01
1.425296140619029539e-01
1.432938479174627466e-01
1.432938479174627466e-01
1.432938479174627466e-01
1.471150171952617380e-01
1.471150171952617380e-01
1.635460450897974760e-01
1.635460450897974760e-01
1.635460450897974760e-01
1.662208635842567783e-01
1.662208635842567783e-01
1.448223156285823598e-01
1.448223156285823598e-01
1.448223156285823598e-01
1.536110049675200595e-01
1.536110049675200595e-01
1.436759648452426430e-01
1.436759648452426430e-01
1.436759648452426430e-01
1.517004203286205499e-01
1.517004203286205499e-01
1.387084447841039347e-01
1.387084447841039347e-01
1.387084447841039347e-01
1.486434849063813513e-01
1.486434849063813513e-01
1.536110049675200595e-01
1.536110049675200595e-01
1.536110049675200595e-01
1.597248758119984846e-01
1.597248758119984846e-01
1.562858234619793618e-01
1.562858234619793618e-01
1.562858234619793618e-01
1.467329002674818417e-01
1.467329002674818417e-01
1.402369124952235480e-01
1.402369124952235480e-01
1.402369124952235480e-01
1.623996943064577869e-01
1.623996943064577869e-01
1.360336262896446324e-01
1.360336262896446324e-01
1.360336262896446324e-01
1.524646541841803704e-01
1.524646541841803704e-01
1.585785250286587678e-01
1.585785250286587678e-01
1.585785250286587678e-01
1.517004203286205499e-01
1.517004203286205499e-01
1.532288880397401631e-01
1.532288880397401631e-01
1.532288880397401631e-01
1.379442109285441420e-01
1.379442109285441420e-01
1.383263278563240384e-01
1.383263278563240384e-01
1.383263278563240384e-01
1.383263278563240384e-01
1.383263278563240384e-01
1.646923958731371929e-01
1.646923958731371929e-01
1.646923958731371929e-01
1.520825372564004463e-01
1.520825372564004463e-01
1.646923958731371929e-01
1.646923958731371929e-01
1.646923958731371929e-01
1.593427588842185605e-01
1.593427588842185605e-01
1.532288880397401631e-01
1.532288880397401631e-01
1.532288880397401631e-01
1.352693924340848397e-01
1.352693924340848397e-01
1.421474971341230298e-01
1.421474971341230298e-01
1.421474971341230298e-01
1.417653802063431334e-01
1.417653802063431334e-01
1.444401987008024357e-01
1.444401987008024357e-01
1.444401987008024357e-01
1.539931218952999559e-01
1.539931218952999559e-01
1.509361864730607572e-01
1.509361864730607572e-01
1.509361864730607572e-01
1.581964081008788714e-01
1.581964081008788714e-01
1.402369124952235480e-01
1.402369124952235480e-01
1.402369124952235480e-01
1.509361864730607572e-01
1.509361864730607572e-01
1.410011463507833407e-01
1.410011463507833407e-01
1.410011463507833407e-01
1.398547955674436516e-01
1.398547955674436516e-01
1.581964081008788714e-01
1.581964081008788714e-01
1.581964081008788714e-01
1.341230416507451229e-01
1.341230416507451229e-01
1.348872755063049156e-01
1.348872755063049156e-01
1.348872755063049156e-01
1.490256018341612476e-01
1.490256018341612476e-01
1.559037065341994654e-01
1.559037065341994654e-01
1.559037065341994654e-01
1.348872755063049156e-01
1.348872755063049156e-01
1.490256018341612476e-01
1.490256018341612476e-01
1.490256018341612476e-01
1.436759648452426430e-01
1.436759648452426430e-01
1.517004203286205499e-01
1.517004203286205499e-01
1.517004203286205499e-01
1.375620940007642456e-01
1.375620940007642456e-01
1.425296140619029539e-01
1.425296140619029539e-01
1.425296140619029539e-01
1.429117309896828503e-01
1.429117309896828503e-01
1.352693924340848397e-01
1.352693924340848397e-01
1.352693924340848397e-01
1.436759648452426430e-01
1.436759648452426430e-01
1.367978601452044252e-01
1.367978601452044252e-01
1.367978601452044252e-01
1.341230416507451229e-01
1.341230416507451229e-01
1.341230416507451229e-01
1.341230416507451229e-01
1.341230416507451229e-01
1.551394726786396727e-01
1.551394726786396727e-01
1.517004203286205499e-01
1.517004203286205499e-01
1.517004203286205499e-01
1.520825372564004463e-01
1.520825372564004463e-01
1.314482231562858205e-01
1.314482231562858205e-01
1.562858234619793618e-01
1.562858234619793618e-01
1.562858234619793618e-01
1.555215896064195691e-01
1.555215896064195691e-01
1.601069927397783810e-01
1.601069927397783810e-01
1.601069927397783810e-01
1.318303400840657169e-01
1.318303400840657169e-01
1.551394726786396727e-01
1.551394726786396727e-01
1.551394726786396727e-01
1.291555215896064146e-01
1.291555215896064146e-01
1.341230416507451229e-01
1.341230416507451229e-01
1.341230416507451229e-01
1.310661062285059242e-01
1.310661062285059242e-01
1.310661062285059242e-01
1.310661062285059242e-01
1.310661062285059242e-01
1.528467711119602668e-01
1.528467711119602668e-01
1.379442109285441420e-01
1.379442109285441420e-01
1.379442109285441420e-01
1.352693924340848397e-01
1.352693924340848397e-01
1.314482231562858205e-01
1.314482231562858205e-01
1.314482231562858205e-01
1.314482231562858205e-01
1.314482231562858205e-01
1.467329002674818417e-01
1.467329002674818417e-01
1.467329002674818417e-01
1.341230416507451229e-01
1.341230416507451229e-01
1.440580817730225394e-01
1.440580817730225394e-01
1.440580817730225394e-01
1.448223156285823598e-01
1.448223156285823598e-01
1.337409247229652265e-01
1.337409247229652265e-01
1.337409247229652265e-01
1.322124570118456133e-01
1.322124570118456133e-01
1.589606419564386641e-01
1.589606419564386641e-01
1.589606419564386641e-01
1.524646541841803704e-01
1.524646541841803704e-01
1.566679403897592582e-01
1.566679403897592582e-01
1.566679403897592582e-01
1.562858234619793618e-01
1.562858234619793618e-01
1.513183034008406536e-01
1.513183034008406536e-01
1.513183034008406536e-01
1.631639281620175796e-01
1.631639281620175796e-01
1.631639281620175796e-01
1.631639281620175796e-01
1.631639281620175796e-01
1.432938479174627466e-01
1.432938479174627466e-01
1.562858234619793618e-01
1.562858234619793618e-01
1.562858234619793618e-01
1.505540695452808608e-01
1.505540695452808608e-01
1.543752388230798522e-01
1.543752388230798522e-01
1.543752388230798522e-01
1.669850974398165711e-01
1.669850974398165711e-01
1.757737867787542985e-01
1.757737867787542985e-01
1.757737867787542985e-01
1.646923958731371929e-01
1.646923958731371929e-01
1.883836453954910173e-01
1.883836453954910173e-01
1.883836453954910173e-01
1.738632021398547889e-01
1.738632021398547889e-01
1.914405808177302160e-01
1.914405808177302160e-01
1.914405808177302160e-01
2.002292701566679434e-01
2.002292701566679434e-01
2.113106610622850490e-01
2.113106610622850490e-01
2.113106610622850490e-01
1.967902178066488483e-01
1.967902178066488483e-01
2.254489873901413810e-01
2.254489873901413810e-01
2.254489873901413810e-01
2.323270920901795988e-01
2.323270920901795988e-01
2.365303782957585144e-01
2.365303782957585144e-01
2.365303782957585144e-01
2.483760030569354127e-01
2.483760030569354127e-01
2.502865876958349500e-01
2.502865876958349500e-01
2.502865876958349500e-01
2.426442491402369117e-01
2.426442491402369117e-01
2.411157814291172985e-01
2.411157814291172985e-01
2.411157814291172985e-01
2.499044707680550259e-01
2.499044707680550259e-01
2.709209017959495758e-01
2.709209017959495758e-01
2.709209017959495758e-01
2.590752770347726219e-01
2.590752770347726219e-01
2.842949942682460596e-01
2.842949942682460596e-01
2.842949942682460596e-01
2.728314864348490576e-01
2.728314864348490576e-01
2.984333205961023916e-01
2.984333205961023916e-01
2.984333205961023916e-01
2.976690867405425989e-01
2.976690867405425989e-01
3.152464654184180537e-01
3.152464654184180537e-01
3.152464654184180537e-01
3.007260221627818253e-01
3.007260221627818253e-01
3.225066870462361401e-01
3.225066870462361401e-01
3.225066870462361401e-01
3.083683607183798081e-01
3.083683607183798081e-01
3.190676346962170173e-01
3.190676346962170173e-01
3.190676346962170173e-01
3.297669086740542821e-01
