2.254489873901413810e-01
2.254489873901413810e-01
2.258311043179212774e-01
2.258311043179212774e-01
2.258311043179212774e-01
2.315628582346198061e-01
2.315628582346198061e-01
2.227741688956820787e-01
2.227741688956820787e-01
2.227741688956820787e-01
2.307986243790599856e-01
2.307986243790599856e-01
2.250668704623614846e-01
2.250668704623614846e-01
2.250668704623614846e-01
2.136033626289644549e-01
2.136033626289644549e-01
2.120748949178448695e-01
2.120748949178448695e-01
2.151318303400840681e-01
2.151318303400840681e-01
2.151318303400840681e-01
2.200993504012227764e-01
2.200993504012227764e-01
2.090179594956056430e-01
2.090179594956056430e-01
2.090179594956056430e-01
2.143675964845242754e-01
2.143675964845242754e-01
2.181887657623232668e-01
2.181887657623232668e-01
2.181887657623232668e-01
2.197172334734428800e-01
2.197172334734428800e-01
2.101643102789453599e-01
2.101643102789453599e-01
2.101643102789453599e-01
2.116927779900649731e-01
2.116927779900649731e-01
2.216278181123423896e-01
2.216278181123423896e-01
2.216278181123423896e-01
1.990829193733282265e-01
1.990829193733282265e-01
2.162781811234237572e-01
2.162781811234237572e-01
2.162781811234237572e-01
2.009935040122277361e-01
2.009935040122277361e-01
2.063431410011463407e-01
2.063431410011463407e-01
2.063431410011463407e-01
2.078716087122659539e-01
2.078716087122659539e-01
2.109285441345051526e-01
2.109285441345051526e-01
2.109285441345051526e-01
2.074894917844860576e-01
2.074894917844860576e-01
1.964081008788689242e-01
1.964081008788689242e-01
1.964081008788689242e-01
2.078716087122659539e-01
2.078716087122659539e-01
1.975544516622086411e-01
1.975544516622086411e-01
1.975544516622086411e-01
1.975544516622086411e-01
1.975544516622086411e-01
1.975544516622086411e-01
1.975544516622086411e-01
1.975544516622086411e-01
1.895299961788307341e-01
1.895299961788307341e-01
1.880015284677111209e-01
1.880015284677111209e-01
1.880015284677111209e-01
1.990829193733282265e-01
1.990829193733282265e-01
1.967902178066488483e-01
1.967902178066488483e-01
1.967902178066488483e-01
1.864730607565915077e-01
1.864730607565915077e-01
1.857088269010317150e-01
1.857088269010317150e-01
1.857088269010317150e-01
1.818876576232326958e-01
1.818876576232326958e-01
1.815055406954527994e-01
1.815055406954527994e-01
1.815055406954527994e-01
1.887657623232709136e-01
1.887657623232709136e-01
1.895299961788307341e-01
1.895299961788307341e-01
1.895299961788307341e-01
1.849445930454719222e-01
1.849445930454719222e-01
1.841803591899121018e-01
1.841803591899121018e-01
1.841803591899121018e-01
1.841803591899121018e-01
1.841803591899121018e-01
1.811234237676729031e-01
1.811234237676729031e-01
1.811234237676729031e-01
1.864730607565915077e-01
1.864730607565915077e-01
1.753916698509744021e-01
1.753916698509744021e-01
1.753916698509744021e-01
1.753916698509744021e-01
1.753916698509744021e-01
1.734810852120748925e-01
1.734810852120748925e-01
1.734810852120748925e-01
1.837982422621322054e-01
1.837982422621322054e-01
1.734810852120748925e-01
1.734810852120748925e-01
1.734810852120748925e-01
1.696599159342759011e-01
1.696599159342759011e-01
1.704241497898356938e-01
1.704241497898356938e-01
1.704241497898356938e-01
1.704241497898356938e-01
1.704241497898356938e-01
1.658387466564768820e-01
1.658387466564768820e-01
1.658387466564768820e-01
1.688956820787160806e-01
1.688956820787160806e-01
1.769201375620939876e-01
1.769201375620939876e-01
1.769201375620939876e-01
1.711883836453954866e-01
1.711883836453954866e-01
1.681314482231562879e-01
1.681314482231562879e-01
1.681314482231562879e-01
1.742453190676346853e-01
1.742453190676346853e-01
1.681314482231562879e-01
1.681314482231562879e-01
1.681314482231562879e-01
1.631639281620175796e-01
1.631639281620175796e-01
1.562858234619793618e-01
1.562858234619793618e-01
1.562858234619793618e-01
1.631639281620175796e-01
1.631639281620175796e-01
1.593427588842185605e-01
1.593427588842185605e-01
1.593427588842185605e-01
1.635460450897974760e-01
1.635460450897974760e-01
1.654566297286969856e-01
1.654566297286969856e-01
1.654566297286969856e-01
1.547573557508597764e-01
1.547573557508597764e-01
1.555215896064195691e-01
1.555215896064195691e-01
1.555215896064195691e-01
1.666029805120366747e-01
1.666029805120366747e-01
1.639281620175773724e-01
1.639281620175773724e-01
1.639281620175773724e-01
1.566679403897592582e-01
1.566679403897592582e-01
1.543752388230798522e-01
1.543752388230798522e-01
1.543752388230798522e-01
1.669850974398165711e-01
1.669850974398165711e-01
1.601069927397783810e-01
1.601069927397783810e-01
1.601069927397783810e-01
1.536110049675200595e-01
1.536110049675200595e-01
1.509361864730607572e-01
1.509361864730607572e-01
1.509361864730607572e-01
1.581964081008788714e-01
1.581964081008788714e-01
1.551394726786396727e-01
1.551394726786396727e-01
1.551394726786396727e-01
1.471150171952617380e-01
1.471150171952617380e-01
1.505540695452808608e-01
1.505540695452808608e-01
1.505540695452808608e-01
1.597248758119984846e-01
1.597248758119984846e-01
1.517004203286205499e-01
1.517004203286205499e-01
1.517004203286205499e-01
1.471150171952617380e-01
1.471150171952617380e-01
1.593427588842185605e-01
1.593427588842185605e-01
1.593427588842185605e-01
1.509361864730607572e-01
1.509361864730607572e-01
1.490256018341612476e-01
1.490256018341612476e-01
1.490256018341612476e-01
1.623996943064577869e-01
1.623996943064577869e-01
1.486434849063813513e-01
1.486434849063813513e-01
1.486434849063813513e-01
1.482613679786014549e-01
1.482613679786014549e-01
1.501719526175009645e-01
1.501719526175009645e-01
1.532288880397401631e-01
1.532288880397401631e-01
1.532288880397401631e-01
1.570500573175391545e-01
1.570500573175391545e-01
1.574321742453190787e-01
1.574321742453190787e-01
1.574321742453190787e-01
1.406190294230034443e-01
1.406190294230034443e-01
1.494077187619411440e-01
1.494077187619411440e-01
1.494077187619411440e-01
1.635460450897974760e-01
1.635460450897974760e-01
1.539931218952999559e-01
1.539931218952999559e-01
1.539931218952999559e-01
1.494077187619411440e-01
1.494077187619411440e-01
1.505540695452808608e-01
1.505540695452808608e-01
1.505540695452808608e-01
1.436759648452426430e-01
1.436759648452426430e-01
1.455865494841421526e-01
1.455865494841421526e-01
1.455865494841421526e-01
1.486434849063813513e-01
1.486434849063813513e-01
1.547573557508597764e-01
1.547573557508597764e-01
1.547573557508597764e-01
1.536110049675200595e-01
1.536110049675200595e-01
1.390905617118838311e-01
1.390905617118838311e-01
1.390905617118838311e-01
1.490256018341612476e-01
1.490256018341612476e-01
1.574321742453190787e-01
1.574321742453190787e-01
1.574321742453190787e-01
1.413832632785632371e-01
1.413832632785632371e-01
1.413832632785632371e-01
1.413832632785632371e-01
1.413832632785632371e-01
1.364157432174245288e-01
1.364157432174245288e-01
1.413832632785632371e-01
1.413832632785632371e-01
1.413832632785632371e-01
1.471150171952617380e-01
1.471150171952617380e-01
1.436759648452426430e-01
1.436759648452426430e-01
1.436759648452426430e-01
1.410011463507833407e-01
1.410011463507833407e-01
1.455865494841421526e-01
1.455865494841421526e-01
1.455865494841421526e-01
1.448223156285823598e-01
1.448223156285823598e-01
1.394726786396637275e-01
1.394726786396637275e-01
1.394726786396637275e-01
1.520825372564004463e-01
1.520825372564004463e-01
1.371799770729843215e-01
1.371799770729843215e-01
1.371799770729843215e-01
1.497898356897210681e-01
1.497898356897210681e-01
1.410011463507833407e-01
1.410011463507833407e-01
1.410011463507833407e-01
1.467329002674818417e-01
1.467329002674818417e-01
1.463507833397019453e-01
1.463507833397019453e-01
1.463507833397019453e-01
1.417653802063431334e-01
1.417653802063431334e-01
1.322124570118456133e-01
1.322124570118456133e-01
1.322124570118456133e-01
1.360336262896446324e-01
1.360336262896446324e-01
1.532288880397401631e-01
1.532288880397401631e-01
1.532288880397401631e-01
1.375620940007642456e-01
1.375620940007642456e-01
1.341230416507451229e-01
1.341230416507451229e-01
1.341230416507451229e-01
1.375620940007642456e-01
1.375620940007642456e-01
1.467329002674818417e-01
1.467329002674818417e-01
1.467329002674818417e-01
1.513183034008406536e-01
1.513183034008406536e-01
1.497898356897210681e-01
1.497898356897210681e-01
1.497898356897210681e-01
1.425296140619029539e-01
1.425296140619029539e-01
1.559037065341994654e-01
1.559037065341994654e-01
1.559037065341994654e-01
1.555215896064195691e-01
1.555215896064195691e-01
1.570500573175391545e-01
1.570500573175391545e-01
1.570500573175391545e-01
1.543752388230798522e-01
1.543752388230798522e-01
1.646923958731371929e-01
1.646923958731371929e-01
1.646923958731371929e-01
1.635460450897974760e-01
1.635460450897974760e-01
1.673672143675964952e-01
1.673672143675964952e-01
1.673672143675964952e-01
1.734810852120748925e-01
1.734810852120748925e-01
1.727168513565150998e-01
1.727168513565150998e-01
1.727168513565150998e-01
1.948796331677493388e-01
1.948796331677493388e-01
1.929690485288498292e-01
1.929690485288498292e-01
1.929690485288498292e-01
1.937332823844096219e-01
1.937332823844096219e-01
2.017577378677875566e-01
2.017577378677875566e-01
2.017577378677875566e-01
2.055789071455865480e-01
2.055789071455865480e-01
2.143675964845242754e-01
2.143675964845242754e-01
2.143675964845242754e-01
2.300343905235001929e-01
2.300343905235001929e-01
2.342376767290791084e-01
2.342376767290791084e-01
2.342376767290791084e-01
2.365303782957585144e-01
2.365303782957585144e-01
2.445548337791364213e-01
2.445548337791364213e-01
2.445548337791364213e-01
2.571646923958731401e-01
2.571646923958731401e-01
2.667176155903706603e-01
2.667176155903706603e-01
2.667176155903706603e-01
2.751241880015284913e-01
2.751241880015284913e-01
2.816201757737867850e-01
2.816201757737867850e-01
2.816201757737867850e-01
2.900267481849446161e-01
2.900267481849446161e-01
2.820022927015666814e-01
2.820022927015666814e-01
2.820022927015666814e-01
3.064577760794803263e-01
3.064577760794803263e-01
3.114252961406190345e-01
3.114252961406190345e-01
3.114252961406190345e-01
3.041650745128008926e-01
3.041650745128008926e-01
3.129537638517386200e-01
3.129537638517386200e-01
3.129537638517386200e-01
3.213603362628964510e-01
3.213603362628964510e-01
3.236530378295758292e-01
3.236530378295758292e-01
3.236530378295758292e-01
3.328238440962934530e-01
3.328238440962934530e-01
3.324417271685135566e-01
3.324417271685135566e-01
3.324417271685135566e-01
3.404661826518914913e-01
3.404661826518914913e-01
3.465800534963698887e-01
3.465800534963698887e-01
3.465800534963698887e-01
3.584256782575467870e-01
3.584256782575467870e-01
3.565150936186473052e-01
3.565150936186473052e-01
3.565150936186473052e-01
3.584256782575467870e-01
3.584256782575467870e-01
3.626289644631257025e-01
3.626289644631257025e-01
3.740924722965227600e-01
3.740924722965227600e-01
3.740924722965227600e-01
3.618647306075659098e-01
3.618647306075659098e-01
3.664501337409247217e-01
3.664501337409247217e-01
3.664501337409247217e-01
3.786778754298815164e-01
3.786778754298815164e-01
3.767672907909820346e-01
3.767672907909820346e-01
3.767672907909820346e-01
3.870844478410393474e-01
3.870844478410393474e-01
3.786778754298815164e-01
3.786778754298815164e-01
3.786778754298815164e-01
3.851738632021398656e-01
3.851738632021398656e-01
3.874665647688192438e-01
3.874665647688192438e-01
3.874665647688192438e-01
3.798242262132212610e-01
3.798242262132212610e-01
3.882307986243790365e-01
3.882307986243790365e-01
3.882307986243790365e-01
3.855559801299197620e-01
3.855559801299197620e-01
3.939625525410775930e-01
3.939625525410775930e-01
3.939625525410775930e-01
3.889950324799388848e-01
3.889950324799388848e-01
3.893771494077187811e-01
3.893771494077187811e-01
3.893771494077187811e-01
3.851738632021398656e-01
3.851738632021398656e-01
3.893771494077187811e-01
3.893771494077187811e-01
3.893771494077187811e-01
3.966373710355368676e-01
3.966373710355368676e-01
3.928162017577378484e-01
3.928162017577378484e-01
3.928162017577378484e-01
3.943446694688574894e-01
3.943446694688574894e-01
3.931983186855177448e-01
3.931983186855177448e-01
3.931983186855177448e-01
3.863202139854795547e-01
3.863202139854795547e-01
3.912877340466182630e-01
3.912877340466182630e-01
3.912877340466182630e-01
3.912877340466182630e-01
3.912877340466182630e-01
3.867023309132594511e-01
3.867023309132594511e-01
3.867023309132594511e-01
3.943446694688574894e-01
3.943446694688574894e-01
3.886129155521589329e-01
3.886129155521589329e-01
3.886129155521589329e-01
3.935804356132976967e-01
3.935804356132976967e-01
3.805884600687810537e-01
3.805884600687810537e-01
3.805884600687810537e-01
3.828811616354604319e-01
3.828811616354604319e-01
3.920519679021780557e-01
3.920519679021780557e-01
3.920519679021780557e-01
3.840275124188001765e-01
3.840275124188001765e-01
3.817348108521207428e-01
3.817348108521207428e-01
3.817348108521207428e-01
3.798242262132212610e-01
3.798242262132212610e-01
3.779136415743217237e-01
3.779136415743217237e-01
3.779136415743217237e-01
3.855559801299197620e-01
3.855559801299197620e-01
3.832632785632403283e-01
3.832632785632403283e-01
3.832632785632403283e-01
3.855559801299197620e-01
3.855559801299197620e-01
3.668322506687046181e-01
3.668322506687046181e-01
3.668322506687046181e-01
3.668322506687046181e-01
3.668322506687046181e-01
3.725640045854031190e-01
3.725640045854031190e-01
3.725640045854031190e-01
3.737103553687428081e-01
3.737103553687428081e-01
3.687428353076040999e-01
3.687428353076040999e-01
3.687428353076040999e-01
3.729461215131830154e-01
3.729461215131830154e-01
3.752388230798624491e-01
3.752388230798624491e-01
3.752388230798624491e-01
3.691249522353840518e-01
3.691249522353840518e-01
3.614826136797860134e-01
3.614826136797860134e-01
3.614826136797860134e-01
3.633931983186854953e-01
3.633931983186854953e-01
3.530760412686281824e-01
3.530760412686281824e-01
3.530760412686281824e-01
3.595720290408865316e-01
3.595720290408865316e-01
3.553687428353076161e-01
3.553687428353076161e-01
3.553687428353076161e-01
3.534581581964080788e-01
3.534581581964080788e-01
3.588077951853266834e-01
3.588077951853266834e-01
3.588077951853266834e-01
3.496369889186091151e-01
3.496369889186091151e-01
3.500191058463890115e-01
3.500191058463890115e-01
3.500191058463890115e-01
3.519296904852884933e-01
3.519296904852884933e-01
3.385555980129919540e-01
3.385555980129919540e-01
3.385555980129919540e-01
3.397019487963316986e-01
3.397019487963316986e-01
3.309132594573939712e-01
3.309132594573939712e-01
3.309132594573939712e-01
3.335880779518532457e-01
3.335880779518532457e-01
3.312953763851738676e-01
3.312953763851738676e-01
3.312953763851738676e-01
3.198318685517768656e-01
3.198318685517768656e-01
3.156285823461979501e-01
3.156285823461979501e-01
3.156285823461979501e-01
3.232709209017959329e-01
3.232709209017959329e-01
3.225066870462361401e-01
3.225066870462361401e-01
3.225066870462361401e-01
3.133358807795185164e-01
3.133358807795185164e-01
3.098968284294994491e-01
3.098968284294994491e-01
3.098968284294994491e-01
3.018723729461215144e-01
3.018723729461215144e-01
3.049293083683607408e-01
3.049293083683607408e-01
3.049293083683607408e-01
3.011081390905617217e-01
3.011081390905617217e-01
2.961406190294230134e-01
2.961406190294230134e-01
2.961406190294230134e-01
2.980512036683224952e-01
2.980512036683224952e-01
2.858234619793657005e-01
2.858234619793657005e-01
2.858234619793657005e-01
2.915552158960642015e-01
2.915552158960642015e-01
2.881161635460450787e-01
2.881161635460450787e-01
2.881161635460450787e-01
2.804738249904470959e-01
2.804738249904470959e-01
2.808559419182269923e-01
2.808559419182269923e-01
2.808559419182269923e-01
2.770347726404279731e-01
2.770347726404279731e-01
2.735957202904088503e-01
2.735957202904088503e-01
2.735957202904088503e-01
2.869698127627053896e-01
2.869698127627053896e-01
2.820022927015666814e-01
2.820022927015666814e-01
2.743599541459686431e-01
2.743599541459686431e-01
2.743599541459686431e-01
2.713030187237294721e-01
2.713030187237294721e-01
2.728314864348490576e-01
2.728314864348490576e-01
2.728314864348490576e-01
2.713030187237294721e-01
2.713030187237294721e-01
2.709209017959495758e-01
2.709209017959495758e-01
2.709209017959495758e-01
2.678639663737103493e-01
2.678639663737103493e-01
2.690103171570500384e-01
2.690103171570500384e-01
2.690103171570500384e-01
2.724493695070691612e-01
2.724493695070691612e-01
2.648070309514711229e-01
2.648070309514711229e-01
2.648070309514711229e-01
2.567825754680932437e-01
2.567825754680932437e-01
2.602216278181123665e-01
2.602216278181123665e-01
2.602216278181123665e-01
2.713030187237294721e-01
2.713030187237294721e-01
2.602216278181123665e-01
2.602216278181123665e-01
2.602216278181123665e-01
2.663354986625907639e-01
2.663354986625907639e-01
2.575468093236530365e-01
2.575468093236530365e-01
2.575468093236530365e-01
2.621322124570118484e-01
2.621322124570118484e-01
2.533435231180741209e-01
2.533435231180741209e-01
2.533435231180741209e-01
2.552541077569736583e-01
2.552541077569736583e-01
2.468475353458158272e-01
2.468475353458158272e-01
2.468475353458158272e-01
2.499044707680550259e-01
2.499044707680550259e-01
2.407336645013374021e-01
2.407336645013374021e-01
2.407336645013374021e-01
2.430263660680168081e-01
2.430263660680168081e-01
2.430263660680168081e-01
2.430263660680168081e-01
2.430263660680168081e-01
2.422621322124570153e-01
2.422621322124570153e-01
2.495223538402751295e-01
2.495223538402751295e-01
2.495223538402751295e-01
2.376767290790982035e-01
2.376767290790982035e-01
2.434084829957967044e-01
2.434084829957967044e-01
2.434084829957967044e-01
2.380588460068780998e-01
2.380588460068780998e-01
2.399694306457776094e-01
2.399694306457776094e-01
2.399694306457776094e-01
2.460833014902560067e-01
2.460833014902560067e-01
2.388230798624378926e-01
2.388230798624378926e-01
2.388230798624378926e-01
2.372946121513183071e-01
2.372946121513183071e-01
2.388230798624378926e-01
2.388230798624378926e-01
2.388230798624378926e-01
2.430263660680168081e-01
2.430263660680168081e-01
2.388230798624378926e-01
2.388230798624378926e-01
2.388230798624378926e-01
2.372946121513183071e-01
2.372946121513183071e-01
2.277416889568207869e-01
2.277416889568207869e-01
2.277416889568207869e-01
2.254489873901413810e-01
2.254489873901413810e-01
2.239205196790217678e-01
2.239205196790217678e-01
2.239205196790217678e-01
2.380588460068780998e-01
2.380588460068780998e-01
2.300343905235001929e-01
2.300343905235001929e-01
2.300343905235001929e-01
2.330913259457393916e-01
2.330913259457393916e-01
2.346197936568590048e-01
2.346197936568590048e-01
2.346197936568590048e-01
2.327092090179594952e-01
2.327092090179594952e-01
2.243026366068016919e-01
2.243026366068016919e-01
2.243026366068016919e-01
2.281238058846006833e-01
2.281238058846006833e-01
2.200993504012227764e-01
2.200993504012227764e-01
2.200993504012227764e-01
2.204814673290026728e-01
2.204814673290026728e-01
2.143675964845242754e-01
2.143675964845242754e-01
2.143675964845242754e-01
2.204814673290026728e-01
2.204814673290026728e-01
2.296522735957202965e-01
2.296522735957202965e-01
2.296522735957202965e-01
2.166602980512036813e-01
2.166602980512036813e-01
2.101643102789453599e-01
2.101643102789453599e-01
2.101643102789453599e-01
2.216278181123423896e-01
2.216278181123423896e-01
2.082537256400458503e-01
2.082537256400458503e-01
2.082537256400458503e-01
2.124570118456247658e-01
2.124570118456247658e-01
2.078716087122659539e-01
2.078716087122659539e-01
2.078716087122659539e-01
2.109285441345051526e-01
2.109285441345051526e-01
2.116927779900649731e-01
2.116927779900649731e-01
2.116927779900649731e-01
2.097821933511654635e-01
2.097821933511654635e-01
2.086358425678257467e-01
2.086358425678257467e-01
2.086358425678257467e-01
1.964081008788689242e-01
1.964081008788689242e-01
2.021398547955674529e-01
2.021398547955674529e-01
2.021398547955674529e-01
2.097821933511654635e-01
2.097821933511654635e-01
1.964081008788689242e-01
1.964081008788689242e-01
1.964081008788689242e-01
2.051967902178066516e-01
2.051967902178066516e-01
1.914405808177302160e-01
1.914405808177302160e-01
1.914405808177302160e-01
2.029040886511272457e-01
2.029040886511272457e-01
1.956438670233091315e-01
1.956438670233091315e-01
1.956438670233091315e-01
1.948796331677493388e-01
1.948796331677493388e-01
1.925869316010699328e-01
1.925869316010699328e-01
1.925869316010699328e-01
1.906763469621704232e-01
1.906763469621704232e-01
1.826518914787925163e-01
1.826518914787925163e-01
1.826518914787925163e-01
1.845624761176920259e-01
1.845624761176920259e-01
1.933511654566297255e-01
1.933511654566297255e-01
1.933511654566297255e-01
1.853267099732518186e-01
1.853267099732518186e-01
1.841803591899121018e-01
1.841803591899121018e-01
1.841803591899121018e-01
1.899121131066106305e-01
1.899121131066106305e-01
1.818876576232326958e-01
1.818876576232326958e-01
1.818876576232326958e-01
1.937332823844096219e-01
1.937332823844096219e-01
1.776843714176538080e-01
1.776843714176538080e-01
1.792128391287733935e-01
1.792128391287733935e-01
1.792128391287733935e-01
1.864730607565915077e-01
1.864730607565915077e-01
1.750095529231945057e-01
1.750095529231945057e-01
1.750095529231945057e-01
1.746274359954146094e-01
1.746274359954146094e-01
1.715705005731753829e-01
1.715705005731753829e-01
1.715705005731753829e-01
1.849445930454719222e-01
1.849445930454719222e-01
1.788307222009934971e-01
1.788307222009934971e-01
1.788307222009934971e-01
1.761559037065341948e-01
1.761559037065341948e-01
1.765380206343140912e-01
1.765380206343140912e-01
1.765380206343140912e-01
1.646923958731371929e-01
1.646923958731371929e-01
1.666029805120366747e-01
1.666029805120366747e-01
1.666029805120366747e-01
1.780664883454337044e-01
1.780664883454337044e-01
1.738632021398547889e-01
1.738632021398547889e-01
1.738632021398547889e-01
1.723347344287352034e-01
1.723347344287352034e-01
1.757737867787542985e-01
1.757737867787542985e-01
1.757737867787542985e-01
1.635460450897974760e-01
1.635460450897974760e-01
1.681314482231562879e-01
1.681314482231562879e-01
1.681314482231562879e-01
1.711883836453954866e-01
1.711883836453954866e-01
1.711883836453954866e-01
1.711883836453954866e-01
1.711883836453954866e-01
1.574321742453190787e-01
1.574321742453190787e-01
1.757737867787542985e-01
1.757737867787542985e-01
1.757737867787542985e-01
1.696599159342759011e-01
1.696599159342759011e-01
1.662208635842567783e-01
1.662208635842567783e-01
1.662208635842567783e-01
1.643102789453572687e-01
1.643102789453572687e-01
1.631639281620175796e-01
1.631639281620175796e-01
1.631639281620175796e-01
1.681314482231562879e-01
1.681314482231562879e-01
1.608712265953381737e-01
1.608712265953381737e-01
1.608712265953381737e-01
1.681314482231562879e-01
1.681314482231562879e-01
1.585785250286587678e-01
1.585785250286587678e-01
1.585785250286587678e-01
1.623996943064577869e-01
1.623996943064577869e-01
1.643102789453572687e-01
1.643102789453572687e-01
1.643102789453572687e-01
1.601069927397783810e-01
1.601069927397783810e-01
1.566679403897592582e-01
1.566679403897592582e-01
1.566679403897592582e-01
1.685135651509361843e-01
1.685135651509361843e-01
1.555215896064195691e-01
1.555215896064195691e-01
1.555215896064195691e-01
1.631639281620175796e-01
1.631639281620175796e-01
1.616354604508979664e-01
1.616354604508979664e-01
1.616354604508979664e-01
1.551394726786396727e-01
1.551394726786396727e-01
1.597248758119984846e-01
1.597248758119984846e-01
1.597248758119984846e-01
1.501719526175009645e-01
1.501719526175009645e-01
1.482613679786014549e-01
1.482613679786014549e-01
1.482613679786014549e-01
1.490256018341612476e-01
1.490256018341612476e-01
1.471150171952617380e-01
1.471150171952617380e-01
1.471150171952617380e-01
1.581964081008788714e-01
1.581964081008788714e-01
1.601069927397783810e-01
1.601069927397783810e-01
1.601069927397783810e-01
1.547573557508597764e-01
1.547573557508597764e-01
1.524646541841803704e-01
1.524646541841803704e-01
1.524646541841803704e-01
1.528467711119602668e-01
1.528467711119602668e-01
1.539931218952999559e-01
1.539931218952999559e-01
1.539931218952999559e-01
1.513183034008406536e-01
1.513183034008406536e-01
1.501719526175009645e-01
1.501719526175009645e-01
1.501719526175009645e-01
1.562858234619793618e-01
1.562858234619793618e-01
1.482613679786014549e-01
1.482613679786014549e-01
1.482613679786014549e-01
1.474971341230416622e-01
1.474971341230416622e-01
1.417653802063431334e-01
1.417653802063431334e-01
1.417653802063431334e-01
1.486434849063813513e-01
1.486434849063813513e-01
1.494077187619411440e-01
1.494077187619411440e-01
1.494077187619411440e-01
1.425296140619029539e-01
1.425296140619029539e-01
1.612533435231180701e-01
1.612533435231180701e-01
1.612533435231180701e-01
1.371799770729843215e-01
1.371799770729843215e-01
1.452044325563622562e-01
1.452044325563622562e-01
1.452044325563622562e-01
1.574321742453190787e-01
1.574321742453190787e-01
1.471150171952617380e-01
1.471150171952617380e-01
1.471150171952617380e-01
1.547573557508597764e-01
1.547573557508597764e-01
1.536110049675200595e-01
1.536110049675200595e-01
1.536110049675200595e-01
1.421474971341230298e-01
1.421474971341230298e-01
1.524646541841803704e-01
1.524646541841803704e-01
1.524646541841803704e-01
1.398547955674436516e-01
1.398547955674436516e-01
1.413832632785632371e-01
1.413832632785632371e-01
1.413832632785632371e-01
1.593427588842185605e-01
1.593427588842185605e-01
1.467329002674818417e-01
1.467329002674818417e-01
1.467329002674818417e-01
1.486434849063813513e-01
1.486434849063813513e-01
1.478792510508215585e-01
1.478792510508215585e-01
1.478792510508215585e-01
1.356515093618647361e-01
1.356515093618647361e-01
1.505540695452808608e-01
1.505540695452808608e-01
1.505540695452808608e-01
1.360336262896446324e-01
1.360336262896446324e-01
1.517004203286205499e-01
1.517004203286205499e-01
1.517004203286205499e-01
1.505540695452808608e-01
1.505540695452808608e-01
1.352693924340848397e-01
1.352693924340848397e-01
1.352693924340848397e-01
1.474971341230416622e-01
1.474971341230416622e-01
1.352693924340848397e-01
1.352693924340848397e-01
1.352693924340848397e-01
1.364157432174245288e-01
1.364157432174245288e-01
1.398547955674436516e-01
1.398547955674436516e-01
1.341230416507451229e-01
1.341230416507451229e-01
1.341230416507451229e-01
1.463507833397019453e-01
1.463507833397019453e-01
1.364157432174245288e-01
1.364157432174245288e-01
1.364157432174245288e-01
1.517004203286205499e-01
1.517004203286205499e-01
1.501719526175009645e-01
1.501719526175009645e-01
1.501719526175009645e-01
1.490256018341612476e-01
1.490256018341612476e-01
1.478792510508215585e-01
1.478792510508215585e-01
1.478792510508215585e-01
1.520825372564004463e-01
1.520825372564004463e-01
1.452044325563622562e-01
1.452044325563622562e-01
1.452044325563622562e-01
1.520825372564004463e-01
1.520825372564004463e-01
1.551394726786396727e-01
1.551394726786396727e-01
1.551394726786396727e-01
1.505540695452808608e-01
1.505540695452808608e-01
1.555215896064195691e-01
1.555215896064195691e-01
1.555215896064195691e-01
1.597248758119984846e-01
1.597248758119984846e-01
1.734810852120748925e-01
1.734810852120748925e-01
1.734810852120748925e-01
1.708062667176155902e-01
1.708062667176155902e-01
1.864730607565915077e-01
1.864730607565915077e-01
1.864730607565915077e-01
1.853267099732518186e-01
1.853267099732518186e-01
1.944975162399694424e-01
1.944975162399694424e-01
1.944975162399694424e-01
1.994650363011081506e-01
1.994650363011081506e-01
1.975544516622086411e-01
1.975544516622086411e-01
1.975544516622086411e-01
2.067252579289262648e-01
2.067252579289262648e-01
2.227741688956820787e-01
2.227741688956820787e-01
2.227741688956820787e-01
2.208635842567825691e-01
2.208635842567825691e-01
2.281238058846006833e-01
2.281238058846006833e-01
2.281238058846006833e-01
2.403515475735575058e-01
2.403515475735575058e-01
2.437905999235766008e-01
2.437905999235766008e-01
2.437905999235766008e-01
2.468475353458158272e-01
2.468475353458158272e-01
2.659533817348108675e-01
2.659533817348108675e-01
2.659533817348108675e-01
2.632785632403515375e-01
2.632785632403515375e-01
2.739778372181887467e-01
2.739778372181887467e-01
2.739778372181887467e-01
2.762705387848681804e-01
2.762705387848681804e-01
2.831486434849063705e-01
2.831486434849063705e-01
2.831486434849063705e-01
2.930836836071837870e-01
2.930836836071837870e-01
3.053114252961406372e-01
3.053114252961406372e-01
3.053114252961406372e-01
3.041650745128008926e-01
3.041650745128008926e-01
3.141001146350783091e-01
3.141001146350783091e-01
3.141001146350783091e-01
3.144822315628582610e-01
3.144822315628582610e-01
3.209782193351165547e-01
3.209782193351165547e-01
3.209782193351165547e-01
3.274742071073748484e-01
3.274742071073748484e-01
3.305311425296140748e-01
3.305311425296140748e-01
3.305311425296140748e-01
3.412304165074512841e-01
3.412304165074512841e-01
3.492548719908292187e-01
3.492548719908292187e-01
3.492548719908292187e-01
3.557508597630875125e-01
3.557508597630875125e-01
3.504012227741689078e-01
3.504012227741689078e-01
3.504012227741689078e-01
3.549866259075277197e-01
3.549866259075277197e-01
3.668322506687046181e-01
3.668322506687046181e-01
3.668322506687046181e-01
3.721818876576232227e-01
3.721818876576232227e-01
3.698891860909438445e-01
3.698891860909438445e-01
3.698891860909438445e-01
3.748567061520825527e-01
3.748567061520825527e-01
3.668322506687046181e-01
3.668322506687046181e-01
3.668322506687046181e-01
3.740924722965227600e-01
3.740924722965227600e-01
3.809705769965609501e-01
3.809705769965609501e-01
3.809705769965609501e-01
3.844096293465800729e-01
3.844096293465800729e-01
3.851738632021398656e-01
3.851738632021398656e-01
3.851738632021398656e-01
3.909056171188383666e-01
3.909056171188383666e-01
3.844096293465800729e-01
3.844096293465800729e-01
3.844096293465800729e-01
3.931983186855177448e-01
3.931983186855177448e-01
3.886129155521589329e-01
3.886129155521589329e-01
3.886129155521589329e-01
3.909056171188383666e-01
3.909056171188383666e-01
3.832632785632403283e-01
3.832632785632403283e-01
3.832632785632403283e-01
3.886129155521589329e-01
3.886129155521589329e-01
3.859380970576996583e-01
3.859380970576996583e-01
3.859380970576996583e-01
3.905235001910584702e-01
3.905235001910584702e-01
3.947267863966373858e-01
3.947267863966373858e-01
3.947267863966373858e-01
3.924340848299579521e-01
3.924340848299579521e-01
3.920519679021780557e-01
3.920519679021780557e-01
3.920519679021780557e-01
3.993121895299961976e-01
3.993121895299961976e-01
3.870844478410393474e-01
3.870844478410393474e-01
3.870844478410393474e-01
3.931983186855177448e-01
3.931983186855177448e-01
3.985479556744364049e-01
3.985479556744364049e-01
3.985479556744364049e-01
3.954910202521971785e-01
3.954910202521971785e-01
3.924340848299579521e-01
3.924340848299579521e-01
3.924340848299579521e-01
3.916698509743981593e-01
3.916698509743981593e-01
3.897592663354986775e-01
3.897592663354986775e-01
3.897592663354986775e-01
3.974016048910966603e-01
3.974016048910966603e-01
3.977837218188765567e-01
3.977837218188765567e-01
3.977837218188765567e-01
3.870844478410393474e-01
3.870844478410393474e-01
3.893771494077187811e-01
3.893771494077187811e-01
3.893771494077187811e-01
3.805884600687810537e-01
3.805884600687810537e-01
3.928162017577378484e-01
3.928162017577378484e-01
3.763851738632021382e-01
3.763851738632021382e-01
3.763851738632021382e-01
3.798242262132212610e-01
3.798242262132212610e-01
3.844096293465800729e-01
3.844096293465800729e-01
3.844096293465800729e-01
3.790599923576614683e-01
3.790599923576614683e-01
3.763851738632021382e-01
3.763851738632021382e-01
3.763851738632021382e-01
3.691249522353840518e-01
3.691249522353840518e-01
3.710355368742835336e-01
3.710355368742835336e-01
3.710355368742835336e-01
3.744745892243026564e-01
3.744745892243026564e-01
3.729461215131830154e-01
3.729461215131830154e-01
3.729461215131830154e-01
3.733282384409629118e-01
3.733282384409629118e-01
3.737103553687428081e-01
3.737103553687428081e-01
3.737103553687428081e-01
3.679786014520443072e-01
3.679786014520443072e-01
3.645395491020252399e-01
3.645395491020252399e-01
3.645395491020252399e-01
3.675964845242644108e-01
3.675964845242644108e-01
3.607183798242262207e-01
3.607183798242262207e-01
3.607183798242262207e-01
3.530760412686281824e-01
3.530760412686281824e-01
3.656858998853649290e-01
3.656858998853649290e-01
3.656858998853649290e-01
3.534581581964080788e-01
3.534581581964080788e-01
3.511654566297287006e-01
3.511654566297287006e-01
3.511654566297287006e-01
3.565150936186473052e-01
3.565150936186473052e-01
3.477264042797095778e-01
3.477264042797095778e-01
3.477264042797095778e-01
3.477264042797095778e-01
3.477264042797095778e-01
3.538402751241879751e-01
3.538402751241879751e-01
3.538402751241879751e-01
3.370271303018723685e-01
3.370271303018723685e-01
3.435231180741306622e-01
3.435231180741306622e-01
3.435231180741306622e-01
3.309132594573939712e-01
3.309132594573939712e-01
3.274742071073748484e-01
3.274742071073748484e-01
3.274742071073748484e-01
3.286205578907145375e-01
3.286205578907145375e-01
3.163928162017577428e-01
3.163928162017577428e-01
3.163928162017577428e-01
3.190676346962170173e-01
3.190676346962170173e-01
3.205961024073366583e-01
3.205961024073366583e-01
3.205961024073366583e-01
3.240351547573557256e-01
3.240351547573557256e-01
3.209782193351165547e-01
3.209782193351165547e-01
3.209782193351165547e-01
3.102789453572793454e-01
3.102789453572793454e-01
3.152464654184180537e-01
3.152464654184180537e-01
3.152464654184180537e-01
2.969048528849828061e-01
2.969048528849828061e-01
3.064577760794803263e-01
3.064577760794803263e-01
3.064577760794803263e-01
3.060756591517004299e-01
3.060756591517004299e-01
2.957585021016431170e-01
2.957585021016431170e-01
2.957585021016431170e-01
3.011081390905617217e-01
3.011081390905617217e-01
2.927015666794038906e-01
2.927015666794038906e-01
2.927015666794038906e-01
2.877340466182651824e-01
2.877340466182651824e-01
2.865876958349254933e-01
2.865876958349254933e-01
2.865876958349254933e-01
2.904088651127245124e-01
2.904088651127245124e-01
2.877340466182651824e-01
2.877340466182651824e-01
2.877340466182651824e-01
2.823844096293465777e-01
2.823844096293465777e-01
2.743599541459686431e-01
2.743599541459686431e-01
2.743599541459686431e-01
2.770347726404279731e-01
2.770347726404279731e-01
2.716851356515093685e-01
2.716851356515093685e-01
2.716851356515093685e-01
2.770347726404279731e-01
2.770347726404279731e-01
2.762705387848681804e-01
2.762705387848681804e-01
2.762705387848681804e-01
2.774168895682078695e-01
2.774168895682078695e-01
2.667176155903706603e-01
2.667176155903706603e-01
2.667176155903706603e-01
2.678639663737103493e-01
2.678639663737103493e-01
2.705387848681696794e-01
2.705387848681696794e-01
2.705387848681696794e-01
2.655712648070309712e-01
2.655712648070309712e-01
2.598395108903324147e-01
2.598395108903324147e-01
2.598395108903324147e-01
2.648070309514711229e-01
2.648070309514711229e-01
2.594573939625525183e-01
2.594573939625525183e-01
2.594573939625525183e-01
2.548719908291937064e-01
2.548719908291937064e-01
2.502865876958349500e-01
2.502865876958349500e-01
2.502865876958349500e-01
2.571646923958731401e-01
2.571646923958731401e-01
2.567825754680932437e-01
2.567825754680932437e-01
2.567825754680932437e-01
2.495223538402751295e-01
2.495223538402751295e-01
2.556362246847535546e-01
2.556362246847535546e-01
2.556362246847535546e-01
2.445548337791364213e-01
2.445548337791364213e-01
2.441727168513565249e-01
2.441727168513565249e-01
2.441727168513565249e-01
2.510508215513947428e-01
2.510508215513947428e-01
2.502865876958349500e-01
2.502865876958349500e-01
2.502865876958349500e-01
2.430263660680168081e-01
2.430263660680168081e-01
2.537256400458540173e-01
2.537256400458540173e-01
2.537256400458540173e-01
2.483760030569354127e-01
2.483760030569354127e-01
2.499044707680550259e-01
2.499044707680550259e-01
2.499044707680550259e-01
2.502865876958349500e-01
2.502865876958349500e-01
2.476117692013756200e-01
2.476117692013756200e-01
2.476117692013756200e-01
2.426442491402369117e-01
2.426442491402369117e-01
2.369124952235384107e-01
2.369124952235384107e-01
2.369124952235384107e-01
2.395873137179977130e-01
2.395873137179977130e-01
2.300343905235001929e-01
2.300343905235001929e-01
2.300343905235001929e-01
2.403515475735575058e-01
2.403515475735575058e-01
2.311807413068398820e-01
2.311807413068398820e-01
2.311807413068398820e-01
2.403515475735575058e-01
2.403515475735575058e-01
2.311807413068398820e-01
2.311807413068398820e-01
2.292701566679404002e-01
2.292701566679404002e-01
2.292701566679404002e-01
2.311807413068398820e-01
2.311807413068398820e-01
2.338555598012991843e-01
2.338555598012991843e-01
2.338555598012991843e-01
2.311807413068398820e-01
2.311807413068398820e-01
2.334734428735192879e-01
2.334734428735192879e-01
2.334734428735192879e-01
2.384409629346579962e-01
2.384409629346579962e-01
2.281238058846006833e-01
2.281238058846006833e-01
2.281238058846006833e-01
2.334734428735192879e-01
2.334734428735192879e-01
2.227741688956820787e-01
2.227741688956820787e-01
2.227741688956820787e-01
2.265953381734810979e-01
2.265953381734810979e-01
2.330913259457393916e-01
2.330913259457393916e-01
2.330913259457393916e-01
2.250668704623614846e-01
2.250668704623614846e-01
2.151318303400840681e-01
2.151318303400840681e-01
2.151318303400840681e-01
2.258311043179212774e-01
2.258311043179212774e-01
2.120748949178448695e-01
2.120748949178448695e-01
2.120748949178448695e-01
2.216278181123423896e-01
2.216278181123423896e-01
2.269774551012609942e-01
2.269774551012609942e-01
2.269774551012609942e-01
2.166602980512036813e-01
2.166602980512036813e-01
2.189529996178830595e-01
2.189529996178830595e-01
2.189529996178830595e-01
2.128391287734046622e-01
2.128391287734046622e-01
2.094000764233855671e-01
2.094000764233855671e-01
2.094000764233855671e-01
2.128391287734046622e-01
2.128391287734046622e-01
2.029040886511272457e-01
2.029040886511272457e-01
2.029040886511272457e-01
2.143675964845242754e-01
2.143675964845242754e-01
2.113106610622850490e-01
2.113106610622850490e-01
2.113106610622850490e-01
2.094000764233855671e-01
2.094000764233855671e-01
2.044325563622468589e-01
2.044325563622468589e-01
2.044325563622468589e-01
2.101643102789453599e-01
2.101643102789453599e-01
1.983186855177684338e-01
1.983186855177684338e-01
1.983186855177684338e-01
2.071073748567061612e-01
2.071073748567061612e-01
2.078716087122659539e-01
2.078716087122659539e-01
2.078716087122659539e-01
2.036683225066870384e-01
2.036683225066870384e-01
1.941153993121895183e-01
1.941153993121895183e-01
1.941153993121895183e-01
2.032862055789071420e-01
2.032862055789071420e-01
2.025219717233473493e-01
2.025219717233473493e-01
2.025219717233473493e-01
1.891478792510508100e-01
1.891478792510508100e-01
1.979365685899885374e-01
1.979365685899885374e-01
1.979365685899885374e-01
1.922048146732900364e-01
1.922048146732900364e-01
1.922048146732900364e-01
1.922048146732900364e-01
1.922048146732900364e-01
1.811234237676729031e-01
1.811234237676729031e-01
1.964081008788689242e-01
1.964081008788689242e-01
1.964081008788689242e-01
1.868551776843714041e-01
1.868551776843714041e-01
1.853267099732518186e-01
1.853267099732518186e-01
1.853267099732518186e-01
1.883836453954910173e-01
1.883836453954910173e-01
1.964081008788689242e-01
1.964081008788689242e-01
1.964081008788689242e-01
1.868551776843714041e-01
1.868551776843714041e-01
1.807413068398930067e-01
1.807413068398930067e-01
1.807413068398930067e-01
1.765380206343140912e-01
1.765380206343140912e-01
1.761559037065341948e-01
1.761559037065341948e-01
1.761559037065341948e-01
1.719526175009552793e-01
1.719526175009552793e-01
1.837982422621322054e-01
1.837982422621322054e-01
1.837982422621322054e-01
1.773022544898739117e-01
1.773022544898739117e-01
1.750095529231945057e-01
1.750095529231945057e-01
1.750095529231945057e-01
1.799770729843332140e-01
1.799770729843332140e-01
1.792128391287733935e-01
1.792128391287733935e-01
1.792128391287733935e-01
1.750095529231945057e-01
1.750095529231945057e-01
1.792128391287733935e-01
1.792128391287733935e-01
1.792128391287733935e-01
1.715705005731753829e-01
1.715705005731753829e-01
1.776843714176538080e-01
1.776843714176538080e-01
1.776843714176538080e-01
1.738632021398547889e-01
1.738632021398547889e-01
1.715705005731753829e-01
1.715705005731753829e-01
1.715705005731753829e-01
1.662208635842567783e-01
1.662208635842567783e-01
1.593427588842185605e-01
1.593427588842185605e-01
1.593427588842185605e-01
1.700420328620557975e-01
1.700420328620557975e-01
1.623996943064577869e-01
1.623996943064577869e-01
1.623996943064577869e-01
1.635460450897974760e-01
1.635460450897974760e-01
1.559037065341994654e-01
1.559037065341994654e-01
1.559037065341994654e-01
1.562858234619793618e-01
1.562858234619793618e-01
1.681314482231562879e-01
1.681314482231562879e-01
1.681314482231562879e-01
1.612533435231180701e-01
1.612533435231180701e-01
1.700420328620557975e-01
1.700420328620557975e-01
1.700420328620557975e-01
1.666029805120366747e-01
1.666029805120366747e-01
1.623996943064577869e-01
1.623996943064577869e-01
1.623996943064577869e-01
1.559037065341994654e-01
1.559037065341994654e-01
1.528467711119602668e-01
1.528467711119602668e-01
1.528467711119602668e-01
1.631639281620175796e-01
1.631639281620175796e-01
1.639281620175773724e-01
1.639281620175773724e-01
1.639281620175773724e-01
1.631639281620175796e-01
1.631639281620175796e-01
1.459686664119220489e-01
1.459686664119220489e-01
1.459686664119220489e-01
1.646923958731371929e-01
1.646923958731371929e-01
1.604891096675582773e-01
1.604891096675582773e-01
1.623996943064577869e-01
1.623996943064577869e-01
1.623996943064577869e-01
1.669850974398165711e-01
1.669850974398165711e-01
1.520825372564004463e-01
1.520825372564004463e-01
1.520825372564004463e-01
1.501719526175009645e-01
1.501719526175009645e-01
1.578142911730989750e-01
1.578142911730989750e-01
1.578142911730989750e-01
1.581964081008788714e-01
1.581964081008788714e-01
1.455865494841421526e-01
1.455865494841421526e-01
1.455865494841421526e-01
1.478792510508215585e-01
1.478792510508215585e-01
1.532288880397401631e-01
1.532288880397401631e-01
1.532288880397401631e-01
1.616354604508979664e-01
1.616354604508979664e-01
1.604891096675582773e-01
1.604891096675582773e-01
1.604891096675582773e-01
1.490256018341612476e-01
1.490256018341612476e-01
1.559037065341994654e-01
1.559037065341994654e-01
1.559037065341994654e-01
1.562858234619793618e-01
1.562858234619793618e-01
1.585785250286587678e-01
1.585785250286587678e-01
1.585785250286587678e-01
1.463507833397019453e-01
1.463507833397019453e-01
1.444401987008024357e-01
1.444401987008024357e-01
1.444401987008024357e-01
1.459686664119220489e-01
1.459686664119220489e-01
1.570500573175391545e-01
1.570500573175391545e-01
1.570500573175391545e-01
1.482613679786014549e-01
1.482613679786014549e-01
1.474971341230416622e-01
1.474971341230416622e-01
1.474971341230416622e-01
1.551394726786396727e-01
1.551394726786396727e-01
1.410011463507833407e-01
1.410011463507833407e-01
1.410011463507833407e-01
1.509361864730607572e-01
1.509361864730607572e-01
1.551394726786396727e-01
1.551394726786396727e-01
1.551394726786396727e-01
1.570500573175391545e-01
1.570500573175391545e-01
1.562858234619793618e-01
1.562858234619793618e-01
1.562858234619793618e-01
1.532288880397401631e-01
1.532288880397401631e-01
1.474971341230416622e-01
1.474971341230416622e-01
1.474971341230416622e-01
1.425296140619029539e-01
1.425296140619029539e-01
1.421474971341230298e-01
1.421474971341230298e-01
1.421474971341230298e-01
1.402369124952235480e-01
1.402369124952235480e-01
1.425296140619029539e-01
1.425296140619029539e-01
1.425296140619029539e-01
1.486434849063813513e-01
1.486434849063813513e-01
1.505540695452808608e-01
1.505540695452808608e-01
1.505540695452808608e-01
1.410011463507833407e-01
1.410011463507833407e-01
1.421474971341230298e-01
1.421474971341230298e-01
1.421474971341230298e-01
1.421474971341230298e-01
1.421474971341230298e-01
1.436759648452426430e-01
1.436759648452426430e-01
1.436759648452426430e-01
1.429117309896828503e-01
1.429117309896828503e-01
1.390905617118838311e-01
1.390905617118838311e-01
1.390905617118838311e-01
1.467329002674818417e-01
1.467329002674818417e-01
1.543752388230798522e-01
1.543752388230798522e-01
1.543752388230798522e-01
1.390905617118838311e-01
1.390905617118838311e-01
1.486434849063813513e-01
1.486434849063813513e-01
1.486434849063813513e-01
1.406190294230034443e-01
1.406190294230034443e-01
1.371799770729843215e-01
1.371799770729843215e-01
1.371799770729843215e-01
1.444401987008024357e-01
1.444401987008024357e-01
1.425296140619029539e-01
1.425296140619029539e-01
1.425296140619029539e-01
1.448223156285823598e-01
1.448223156285823598e-01
1.448223156285823598e-01
1.448223156285823598e-01
1.448223156285823598e-01
1.452044325563622562e-01
1.452044325563622562e-01
1.345051585785250192e-01
1.345051585785250192e-01
1.345051585785250192e-01
1.341230416507451229e-01
1.341230416507451229e-01
1.387084447841039347e-01
1.387084447841039347e-01
1.387084447841039347e-01
1.375620940007642456e-01
1.375620940007642456e-01
1.501719526175009645e-01
1.501719526175009645e-01
1.501719526175009645e-01
1.486434849063813513e-01
1.486434849063813513e-01
1.528467711119602668e-01
1.528467711119602668e-01
1.528467711119602668e-01
1.371799770729843215e-01
1.371799770729843215e-01
1.402369124952235480e-01
1.402369124952235480e-01
1.402369124952235480e-01
1.539931218952999559e-01
1.539931218952999559e-01
1.562858234619793618e-01
1.562858234619793618e-01
1.562858234619793618e-01
1.673672143675964952e-01
1.673672143675964952e-01
1.700420328620557975e-01
1.700420328620557975e-01
1.700420328620557975e-01
1.631639281620175796e-01
1.631639281620175796e-01
1.738632021398547889e-01
1.738632021398547889e-01
1.738632021398547889e-01
1.803591899121131104e-01
1.803591899121131104e-01
1.860909438288116113e-01
1.860909438288116113e-01
1.860909438288116113e-01
1.841803591899121018e-01
1.841803591899121018e-01
1.956438670233091315e-01
1.956438670233091315e-01
1.956438670233091315e-01
2.071073748567061612e-01
2.071073748567061612e-01
2.051967902178066516e-01
2.051967902178066516e-01
2.051967902178066516e-01
2.189529996178830595e-01
2.189529996178830595e-01
2.292701566679404002e-01
2.292701566679404002e-01
2.292701566679404002e-01
2.350019105846389011e-01
2.350019105846389011e-01
2.357661444401986939e-01
2.357661444401986939e-01
2.357661444401986939e-01
2.380588460068780998e-01
2.380588460068780998e-01
2.564004585403133474e-01
2.564004585403133474e-01
2.564004585403133474e-01
2.579289262514329328e-01
2.579289262514329328e-01
2.701566679403897830e-01
2.701566679403897830e-01
2.823844096293465777e-01
2.823844096293465777e-01
2.823844096293465777e-01
2.873519296904852860e-01
2.873519296904852860e-01
2.842949942682460596e-01
2.842949942682460596e-01
2.842949942682460596e-01
2.930836836071837870e-01
2.930836836071837870e-01
3.064577760794803263e-01
3.064577760794803263e-01
3.064577760794803263e-01
3.041650745128008926e-01
3.041650745128008926e-01
3.156285823461979501e-01
3.156285823461979501e-01
3.156285823461979501e-01
3.163928162017577428e-01
3.163928162017577428e-01
3.278563240351547448e-01
3.278563240351547448e-01
3.278563240351547448e-01
3.366450133740924722e-01
3.366450133740924722e-01
3.274742071073748484e-01
3.274742071073748484e-01
3.274742071073748484e-01
3.370271303018723685e-01
3.370271303018723685e-01
3.454337027130301996e-01
3.454337027130301996e-01
3.454337027130301996e-01
3.446694688574704069e-01
3.446694688574704069e-01
3.492548719908292187e-01
3.492548719908292187e-01
3.492548719908292187e-01
3.507833397019488042e-01
3.507833397019488042e-01
3.603362628964463243e-01
3.603362628964463243e-01
3.603362628964463243e-01
3.622468475353458062e-01
3.622468475353458062e-01
3.622468475353458062e-01
3.622468475353458062e-01
3.622468475353458062e-01
3.595720290408865316e-01
3.595720290408865316e-01
3.683607183798242035e-01
3.683607183798242035e-01
3.683607183798242035e-01
3.714176538020634299e-01
3.714176538020634299e-01
3.675964845242644108e-01
3.675964845242644108e-01
3.675964845242644108e-01
3.771494077187619309e-01
3.771494077187619309e-01
3.717997707298433263e-01
3.717997707298433263e-01
3.717997707298433263e-01
3.874665647688192438e-01
3.874665647688192438e-01
3.851738632021398656e-01
3.851738632021398656e-01
3.851738632021398656e-01
3.805884600687810537e-01
3.805884600687810537e-01
3.840275124188001765e-01
3.840275124188001765e-01
3.840275124188001765e-01
3.836453954910202246e-01
3.836453954910202246e-01
3.951089033244172821e-01
3.951089033244172821e-01
3.951089033244172821e-01
3.870844478410393474e-01
3.870844478410393474e-01
3.962552541077569712e-01
3.962552541077569712e-01
3.962552541077569712e-01
3.928162017577378484e-01
3.928162017577378484e-01
3.779136415743217237e-01
3.779136415743217237e-01
3.779136415743217237e-01
3.924340848299579521e-01
3.924340848299579521e-01
3.790599923576614683e-01
3.790599923576614683e-01
3.790599923576614683e-01
3.874665647688192438e-01
3.874665647688192438e-01
4.000764233855559904e-01
4.000764233855559904e-01
4.000764233855559904e-01
3.951089033244172821e-01
3.951089033244172821e-01
3.893771494077187811e-01
3.893771494077187811e-01
3.893771494077187811e-01
3.863202139854795547e-01
3.863202139854795547e-01
3.824990447076805355e-01
3.824990447076805355e-01
3.824990447076805355e-01
3.867023309132594511e-01
3.867023309132594511e-01
3.958731371799770749e-01
3.958731371799770749e-01
3.958731371799770749e-01
3.748567061520825527e-01
3.748567061520825527e-01
3.786778754298815164e-01
3.786778754298815164e-01
3.786778754298815164e-01
3.760030569354222418e-01
3.760030569354222418e-01
3.840275124188001765e-01
3.840275124188001765e-01
3.840275124188001765e-01
3.824990447076805355e-01
3.824990447076805355e-01
3.851738632021398656e-01
3.851738632021398656e-01
3.851738632021398656e-01
3.809705769965609501e-01
3.809705769965609501e-01
3.805884600687810537e-01
3.805884600687810537e-01
3.805884600687810537e-01
3.740924722965227600e-01
3.740924722965227600e-01
3.744745892243026564e-01
3.744745892243026564e-01
3.744745892243026564e-01
3.790599923576614683e-01
3.790599923576614683e-01
3.679786014520443072e-01
3.679786014520443072e-01
3.679786014520443072e-01
3.630110813909055989e-01
3.630110813909055989e-01
3.607183798242262207e-01
3.607183798242262207e-01
3.607183798242262207e-01
3.626289644631257025e-01
3.626289644631257025e-01
3.687428353076040999e-01
3.687428353076040999e-01
3.687428353076040999e-01
3.679786014520443072e-01
3.679786014520443072e-01
3.546045089797478234e-01
3.546045089797478234e-01
3.546045089797478234e-01
3.664501337409247217e-01
3.664501337409247217e-01
3.576614444019869943e-01
3.576614444019869943e-01
3.576614444019869943e-01
3.542223920519679270e-01
3.542223920519679270e-01
3.595720290408865316e-01
3.595720290408865316e-01
3.595720290408865316e-01
3.526939243408482860e-01
3.526939243408482860e-01
3.389377149407718504e-01
3.389377149407718504e-01
3.389377149407718504e-01
3.469621704241497850e-01
3.469621704241497850e-01
3.473442873519296814e-01
3.473442873519296814e-01
3.473442873519296814e-01
3.397019487963316986e-01
3.397019487963316986e-01
3.435231180741306622e-01
3.435231180741306622e-01
3.435231180741306622e-01
3.290026748184944339e-01
3.290026748184944339e-01
3.435231180741306622e-01
3.435231180741306622e-01
3.435231180741306622e-01
3.274742071073748484e-01
3.274742071073748484e-01
3.255636224684753666e-01
3.255636224684753666e-01
3.255636224684753666e-01
3.156285823461979501e-01
3.156285823461979501e-01
3.175391669850974319e-01
3.175391669850974319e-01
3.175391669850974319e-01
3.167749331295376392e-01
3.167749331295376392e-01
3.183034008406572246e-01
3.183034008406572246e-01
3.183034008406572246e-01
3.152464654184180537e-01
3.152464654184180537e-01
3.014902560183416180e-01
3.014902560183416180e-01
3.083683607183798081e-01
3.083683607183798081e-01
3.083683607183798081e-01
3.114252961406190345e-01
3.114252961406190345e-01
2.942300343905234761e-01
2.942300343905234761e-01
2.942300343905234761e-01
2.984333205961023916e-01
2.984333205961023916e-01
2.850592281238059078e-01
2.850592281238059078e-01
2.850592281238059078e-01
2.904088651127245124e-01
2.904088651127245124e-01
2.820022927015666814e-01
2.820022927015666814e-01
2.820022927015666814e-01
2.804738249904470959e-01
2.804738249904470959e-01
2.793274742071073513e-01
2.793274742071073513e-01
2.793274742071073513e-01
2.751241880015284913e-01
2.751241880015284913e-01
2.724493695070691612e-01
2.724493695070691612e-01
2.724493695070691612e-01
2.720672525792892649e-01
2.720672525792892649e-01
2.884982804738249751e-01
2.884982804738249751e-01
2.884982804738249751e-01
2.636606801681314338e-01
2.636606801681314338e-01
2.713030187237294721e-01
2.713030187237294721e-01
2.713030187237294721e-01
2.667176155903706603e-01
2.667176155903706603e-01
2.705387848681696794e-01
