4.761176920137561996e-01
4.761176920137561996e-01
4.906381352693924280e-01
4.906381352693924280e-01
4.906381352693924280e-01
4.558654948414214703e-01
4.558654948414214703e-01
4.528085594191822438e-01
4.528085594191822438e-01
4.528085594191822438e-01
4.837600305693542380e-01
4.837600305693542380e-01
4.650363011081390940e-01
4.650363011081390940e-01
4.650363011081390940e-01
4.677111196025983686e-01
4.677111196025983686e-01
4.562476117692013666e-01
4.562476117692013666e-01
4.562476117692013666e-01
4.394344669468857600e-01
4.394344669468857600e-01
4.478410393580435356e-01
4.478410393580435356e-01
4.478410393580435356e-01
4.608330149025601785e-01
4.608330149025601785e-01
4.272067252579289098e-01
4.272067252579289098e-01
4.272067252579289098e-01
4.466946885747038465e-01
4.466946885747038465e-01
4.394344669468857600e-01
4.394344669468857600e-01
4.394344669468857600e-01
4.268246083301490135e-01
4.268246083301490135e-01
4.447841039358043647e-01
4.447841039358043647e-01
4.447841039358043647e-01
4.061902942300343877e-01
4.061902942300343877e-01
4.230034390523499943e-01
4.230034390523499943e-01
4.230034390523499943e-01
4.222392051967902016e-01
4.222392051967902016e-01
4.241497898356897389e-01
4.241497898356897389e-01
4.241497898356897389e-01
3.916698509743981593e-01
3.916698509743981593e-01
4.077187619411539732e-01
4.077187619411539732e-01
4.077187619411539732e-01
3.912877340466182630e-01
3.912877340466182630e-01
3.802063431410011574e-01
3.802063431410011574e-01
3.802063431410011574e-01
3.782957585021016200e-01
3.782957585021016200e-01
3.912877340466182630e-01
3.912877340466182630e-01
3.912877340466182630e-01
3.729461215131830154e-01
3.729461215131830154e-01
3.614826136797860134e-01
3.614826136797860134e-01
3.614826136797860134e-01
3.798242262132212610e-01
3.798242262132212610e-01
3.798242262132212610e-01
3.798242262132212610e-01
3.798242262132212610e-01
3.809705769965609501e-01
3.809705769965609501e-01
3.771494077187619309e-01
3.771494077187619309e-01
3.771494077187619309e-01
3.611004967520061171e-01
3.611004967520061171e-01
3.672143675964845144e-01
3.672143675964845144e-01
3.316774933129537639e-01
3.316774933129537639e-01
3.316774933129537639e-01
3.381734810852120576e-01
3.381734810852120576e-01
3.473442873519296814e-01
3.473442873519296814e-01
3.473442873519296814e-01
3.255636224684753666e-01
3.255636224684753666e-01
3.225066870462361401e-01
3.225066870462361401e-01
3.225066870462361401e-01
3.377913641574321613e-01
3.377913641574321613e-01
3.339701948796331421e-01
3.339701948796331421e-01
3.339701948796331421e-01
3.110431792128391382e-01
3.110431792128391382e-01
2.999617883072220326e-01
2.999617883072220326e-01
2.999617883072220326e-01
2.873519296904852860e-01
2.873519296904852860e-01
2.881161635460450787e-01
2.881161635460450787e-01
2.881161635460450787e-01
2.755063049293083877e-01
2.755063049293083877e-01
2.927015666794038906e-01
2.927015666794038906e-01
2.927015666794038906e-01
2.831486434849063705e-01
2.831486434849063705e-01
2.560183416125334510e-01
2.560183416125334510e-01
2.560183416125334510e-01
2.613679786014520556e-01
2.613679786014520556e-01
2.495223538402751295e-01
2.495223538402751295e-01
2.495223538402751295e-01
2.709209017959495758e-01
2.709209017959495758e-01
2.472296522735957236e-01
2.472296522735957236e-01
2.472296522735957236e-01
2.239205196790217678e-01
2.239205196790217678e-01
2.193351165456629837e-01
2.193351165456629837e-01
2.193351165456629837e-01
2.434084829957967044e-01
2.434084829957967044e-01
2.269774551012609942e-01
2.269774551012609942e-01
2.269774551012609942e-01
2.116927779900649731e-01
2.116927779900649731e-01
2.136033626289644549e-01
2.136033626289644549e-01
2.136033626289644549e-01
1.964081008788689242e-01
1.964081008788689242e-01
1.868551776843714041e-01
1.868551776843714041e-01
1.868551776843714041e-01
2.021398547955674529e-01
2.021398547955674529e-01
1.826518914787925163e-01
1.826518914787925163e-01
1.826518914787925163e-01
1.792128391287733935e-01
1.792128391287733935e-01
1.769201375620939876e-01
1.769201375620939876e-01
1.769201375620939876e-01
2.040504394344669348e-01
2.040504394344669348e-01
1.700420328620557975e-01
1.700420328620557975e-01
1.700420328620557975e-01
1.860909438288116113e-01
1.860909438288116113e-01
1.971723347344287447e-01
1.971723347344287447e-01
1.971723347344287447e-01
1.776843714176538080e-01
1.776843714176538080e-01
1.727168513565150998e-01
1.727168513565150998e-01
1.727168513565150998e-01
1.662208635842567783e-01
1.662208635842567783e-01
1.719526175009552793e-01
1.719526175009552793e-01
1.719526175009552793e-01
1.570500573175391545e-01
1.570500573175391545e-01
1.773022544898739117e-01
1.773022544898739117e-01
1.773022544898739117e-01
1.455865494841421526e-01
1.455865494841421526e-01
1.497898356897210681e-01
1.497898356897210681e-01
1.497898356897210681e-01
1.681314482231562879e-01
1.681314482231562879e-01
1.402369124952235480e-01
1.402369124952235480e-01
1.402369124952235480e-01
1.436759648452426430e-01
1.436759648452426430e-01
1.685135651509361843e-01
1.685135651509361843e-01
1.685135651509361843e-01
1.379442109285441420e-01
1.379442109285441420e-01
1.348872755063049156e-01
1.348872755063049156e-01
1.348872755063049156e-01
1.467329002674818417e-01
1.467329002674818417e-01
1.329766908674054338e-01
1.329766908674054338e-01
1.329766908674054338e-01
1.398547955674436516e-01
1.398547955674436516e-01
1.417653802063431334e-01
1.417653802063431334e-01
1.417653802063431334e-01
1.597248758119984846e-01
1.597248758119984846e-01
1.253343523118074232e-01
1.253343523118074232e-01
1.253343523118074232e-01
1.429117309896828503e-01
1.429117309896828503e-01
1.283912877340466219e-01
1.283912877340466219e-01
1.283912877340466219e-01
1.486434849063813513e-01
1.486434849063813513e-01
1.616354604508979664e-01
1.616354604508979664e-01
1.616354604508979664e-01
1.551394726786396727e-01
1.551394726786396727e-01
1.280091708062667255e-01
1.280091708062667255e-01
1.280091708062667255e-01
1.597248758119984846e-01
1.597248758119984846e-01
1.257164692395873196e-01
1.257164692395873196e-01
1.257164692395873196e-01
1.329766908674054338e-01
1.329766908674054338e-01
1.505540695452808608e-01
1.505540695452808608e-01
1.505540695452808608e-01
1.425296140619029539e-01
1.425296140619029539e-01
1.486434849063813513e-01
1.486434849063813513e-01
1.486434849063813513e-01
1.410011463507833407e-01
1.410011463507833407e-01
1.283912877340466219e-01
1.283912877340466219e-01
1.283912877340466219e-01
1.601069927397783810e-01
1.601069927397783810e-01
1.264807030951471123e-01
1.264807030951471123e-01
1.264807030951471123e-01
1.486434849063813513e-01
1.486434849063813513e-01
1.387084447841039347e-01
1.387084447841039347e-01
1.387084447841039347e-01
1.287734046618265182e-01
1.287734046618265182e-01
1.360336262896446324e-01
1.360336262896446324e-01
1.360336262896446324e-01
1.589606419564386641e-01
1.589606419564386641e-01
1.352693924340848397e-01
1.352693924340848397e-01
1.352693924340848397e-01
1.291555215896064146e-01
1.291555215896064146e-01
1.486434849063813513e-01
1.486434849063813513e-01
1.486434849063813513e-01
1.547573557508597764e-01
1.547573557508597764e-01
1.295376385173863110e-01
1.295376385173863110e-01
1.608712265953381737e-01
1.608712265953381737e-01
1.608712265953381737e-01
1.501719526175009645e-01
1.501719526175009645e-01
1.536110049675200595e-01
1.536110049675200595e-01
1.536110049675200595e-01
1.490256018341612476e-01
1.490256018341612476e-01
1.295376385173863110e-01
1.295376385173863110e-01
1.295376385173863110e-01
1.303018723729461315e-01
1.303018723729461315e-01
1.348872755063049156e-01
1.348872755063049156e-01
1.348872755063049156e-01
1.287734046618265182e-01
1.287734046618265182e-01
1.478792510508215585e-01
1.478792510508215585e-01
1.478792510508215585e-01
1.318303400840657169e-01
1.318303400840657169e-01
1.593427588842185605e-01
1.593427588842185605e-01
1.593427588842185605e-01
1.364157432174245288e-01
1.364157432174245288e-01
1.268628200229270087e-01
1.268628200229270087e-01
1.268628200229270087e-01
1.306839893007260278e-01
1.306839893007260278e-01
1.375620940007642456e-01
1.375620940007642456e-01
1.375620940007642456e-01
1.455865494841421526e-01
1.455865494841421526e-01
1.429117309896828503e-01
1.429117309896828503e-01
1.429117309896828503e-01
1.280091708062667255e-01
1.280091708062667255e-01
1.360336262896446324e-01
1.360336262896446324e-01
1.360336262896446324e-01
1.306839893007260278e-01
1.306839893007260278e-01
1.280091708062667255e-01
1.280091708062667255e-01
1.280091708062667255e-01
1.459686664119220489e-01
1.459686664119220489e-01
1.276270538784868291e-01
1.276270538784868291e-01
1.276270538784868291e-01
1.260985861673672159e-01
1.260985861673672159e-01
1.387084447841039347e-01
1.387084447841039347e-01
1.387084447841039347e-01
1.241880015284677063e-01
1.241880015284677063e-01
1.283912877340466219e-01
1.283912877340466219e-01
1.283912877340466219e-01
1.173098968284295024e-01
1.173098968284295024e-01
1.505540695452808608e-01
1.505540695452808608e-01
1.505540695452808608e-01
1.509361864730607572e-01
1.509361864730607572e-01
1.230416507451280034e-01
1.230416507451280034e-01
1.230416507451280034e-01
1.272449369507069050e-01
1.272449369507069050e-01
1.310661062285059242e-01
1.310661062285059242e-01
1.310661062285059242e-01
1.268628200229270087e-01
1.268628200229270087e-01
1.383263278563240384e-01
1.383263278563240384e-01
1.383263278563240384e-01
1.104317921283912846e-01
1.104317921283912846e-01
1.203668322506687011e-01
1.203668322506687011e-01
1.203668322506687011e-01
1.283912877340466219e-01
1.283912877340466219e-01
1.073748567061520859e-01
1.073748567061520859e-01
1.073748567061520859e-01
1.295376385173863110e-01
1.295376385173863110e-01
1.364157432174245288e-01
1.364157432174245288e-01
1.364157432174245288e-01
1.375620940007642456e-01
1.375620940007642456e-01
1.173098968284295024e-01
1.173098968284295024e-01
1.173098968284295024e-01
1.356515093618647361e-01
1.356515093618647361e-01
1.329766908674054338e-01
1.329766908674054338e-01
1.329766908674054338e-01
1.253343523118074232e-01
1.253343523118074232e-01
9.514711501719526343e-02
9.514711501719526343e-02
9.514711501719526343e-02
1.211310661062285077e-01
1.211310661062285077e-01
1.291555215896064146e-01
1.291555215896064146e-01
1.291555215896064146e-01
1.241880015284677063e-01
1.241880015284677063e-01
1.150171952617500964e-01
1.150171952617500964e-01
1.150171952617500964e-01
1.050821551394726799e-01
1.050821551394726799e-01
9.552923194497515980e-02
9.552923194497515980e-02
9.552923194497515980e-02
9.209017959495605088e-02
9.209017959495605088e-02
9.858616736721437235e-02
9.858616736721437235e-02
9.858616736721437235e-02
1.222774168895682106e-01
1.222774168895682106e-01
8.330149025601833734e-02
8.330149025601833734e-02
8.330149025601833734e-02
8.903324417271685220e-02
8.903324417271685220e-02
1.085212074894917889e-01
1.085212074894917889e-01
1.085212074894917889e-01
1.142529614061902898e-01
1.142529614061902898e-01
8.750477646159725287e-02
8.750477646159725287e-02
8.750477646159725287e-02
8.865112724493695584e-02
8.865112724493695584e-02
8.100878868933893140e-02
8.100878868933893140e-02
8.100878868933893140e-02
7.909820405043943570e-02
7.909820405043943570e-02
8.444784103935804032e-02
8.444784103935804032e-02
8.444784103935804032e-02
7.871608712265953933e-02
7.871608712265953933e-02
7.222009935040121786e-02
7.222009935040121786e-02
7.222009935040121786e-02
9.743981658387466938e-02
9.743981658387466938e-02
1.050821551394726799e-01
1.050821551394726799e-01
1.050821551394726799e-01
9.973251815055407532e-02
9.973251815055407532e-02
8.979747802827665881e-02
8.979747802827665881e-02
8.979747802827665881e-02
8.826901031715704560e-02
8.826901031715704560e-02
6.763469621704241985e-02
6.763469621704241985e-02
6.763469621704241985e-02
8.024455483377913867e-02
8.024455483377913867e-02
6.113870844478410532e-02
6.113870844478410532e-02
6.113870844478410532e-02
8.979747802827665881e-02
8.979747802827665881e-02
7.451280091708062381e-02
7.451280091708062381e-02
7.451280091708062381e-02
9.209017959495605088e-02
9.209017959495605088e-02
5.808177302254489971e-02
5.808177302254489971e-02
5.808177302254489971e-02
5.808177302254489971e-02
5.808177302254489971e-02
5.769965609476499641e-02
5.769965609476499641e-02
5.769965609476499641e-02
5.387848681696599112e-02
5.387848681696599112e-02
7.871608712265953933e-02
7.871608712265953933e-02
6.878104700038212282e-02
6.878104700038212282e-02
6.878104700038212282e-02
5.617118838364539707e-02
5.617118838364539707e-02
7.718761941153992612e-02
7.718761941153992612e-02
7.718761941153992612e-02
5.158578525028658518e-02
5.158578525028658518e-02
5.999235766144440235e-02
5.999235766144440235e-02
5.999235766144440235e-02
7.489491784486053405e-02
7.489491784486053405e-02
7.833397019487962909e-02
7.833397019487962909e-02
7.833397019487962909e-02
7.298433320596102447e-02
7.298433320596102447e-02
6.304929308368360796e-02
6.304929308368360796e-02
6.304929308368360796e-02
4.738249904470768353e-02
4.738249904470768353e-02
7.298433320596102447e-02
7.298433320596102447e-02
7.298433320596102447e-02
5.540695452808559740e-02
5.540695452808559740e-02
4.738249904470768353e-02
4.738249904470768353e-02
4.738249904470768353e-02
7.871608712265953933e-02
7.871608712265953933e-02
5.158578525028658518e-02
5.158578525028658518e-02
5.158578525028658518e-02
7.413068398930072744e-02
7.413068398930072744e-02
5.693542223920519674e-02
5.693542223920519674e-02
5.693542223920519674e-02
6.190294230034390499e-02
6.190294230034390499e-02
5.158578525028658518e-02
5.158578525028658518e-02
5.158578525028658518e-02
5.808177302254489971e-02
5.808177302254489971e-02
6.457776079480320730e-02
6.457776079480320730e-02
6.457776079480320730e-02
6.992739778372182580e-02
6.992739778372182580e-02
5.464272067252579079e-02
5.464272067252579079e-02
5.464272067252579079e-02
4.203286205578907198e-02
4.203286205578907198e-02
3.515475735575086108e-02
3.515475735575086108e-02
3.515475735575086108e-02
3.859380970576996306e-02
3.859380970576996306e-02
3.744745892243026703e-02
3.744745892243026703e-02
3.744745892243026703e-02
4.661826518914787693e-02
4.661826518914787693e-02
3.400840657241115811e-02
3.400840657241115811e-02
3.400840657241115811e-02
5.043943446694688915e-02
5.043943446694688915e-02
6.381352693924341457e-02
6.381352693924341457e-02
6.381352693924341457e-02
6.075659151700420202e-02
6.075659151700420202e-02
3.974016048910966603e-02
3.974016048910966603e-02
3.974016048910966603e-02
4.508979747802827759e-02
4.508979747802827759e-02
4.165074512800916867e-02
4.165074512800916867e-02
4.165074512800916867e-02
7.948032097821933206e-02
7.948032097821933206e-02
7.030951471150172216e-02
7.030951471150172216e-02
7.030951471150172216e-02
5.387848681696599112e-02
5.387848681696599112e-02
8.559419182269774329e-02
8.559419182269774329e-02
8.559419182269774329e-02
9.361864730607566409e-02
9.361864730607566409e-02
1.047000382116927836e-01
1.047000382116927836e-01
1.047000382116927836e-01
1.111960259839510912e-01
1.111960259839510912e-01
8.788689338937714923e-02
8.788689338937714923e-02
8.788689338937714923e-02
1.089033244172716852e-01
1.089033244172716852e-01
1.016431027894535710e-01
1.016431027894535710e-01
1.016431027894535710e-01
1.379442109285441420e-01
1.379442109285441420e-01
1.551394726786396727e-01
1.551394726786396727e-01
1.551394726786396727e-01
1.562858234619793618e-01
1.562858234619793618e-01
1.658387466564768820e-01
1.658387466564768820e-01
1.658387466564768820e-01
1.677493312953763915e-01
1.677493312953763915e-01
1.876194115399312246e-01
1.876194115399312246e-01
1.876194115399312246e-01
2.124570118456247658e-01
2.124570118456247658e-01
1.922048146732900364e-01
1.922048146732900364e-01
1.922048146732900364e-01
2.235384027512418714e-01
2.235384027512418714e-01
2.170424149789835777e-01
2.170424149789835777e-01
2.170424149789835777e-01
2.479938861291555163e-01
2.479938861291555163e-01
2.430263660680168081e-01
2.430263660680168081e-01
2.430263660680168081e-01
2.571646923958731401e-01
2.571646923958731401e-01
2.839128773404661632e-01
2.839128773404661632e-01
2.839128773404661632e-01
2.969048528849828061e-01
2.969048528849828061e-01
2.957585021016431170e-01
2.957585021016431170e-01
2.957585021016431170e-01
3.133358807795185164e-01
3.133358807795185164e-01
3.362628964463125758e-01
3.362628964463125758e-01
3.362628964463125758e-01
3.557508597630875125e-01
3.557508597630875125e-01
3.565150936186473052e-01
3.565150936186473052e-01
3.565150936186473052e-01
3.775315246465418273e-01
3.775315246465418273e-01
3.905235001910584702e-01
3.905235001910584702e-01
3.905235001910584702e-01
3.909056171188383666e-01
3.909056171188383666e-01
3.760030569354222418e-01
3.760030569354222418e-01
3.760030569354222418e-01
3.847917462743599692e-01
3.847917462743599692e-01
3.897592663354986775e-01
3.897592663354986775e-01
3.897592663354986775e-01
4.081008788689338695e-01
4.081008788689338695e-01
4.061902942300343877e-01
4.061902942300343877e-01
4.061902942300343877e-01
4.447841039358043647e-01
4.447841039358043647e-01
4.405808177302254491e-01
4.405808177302254491e-01
4.405808177302254491e-01
4.573939625525410557e-01
4.573939625525410557e-01
4.256782575468093244e-01
4.256782575468093244e-01
4.256782575468093244e-01
4.325563622468475145e-01
4.325563622468475145e-01
4.459304547191440538e-01
4.459304547191440538e-01
4.459304547191440538e-01
4.379059992357661191e-01
4.379059992357661191e-01
4.734428735192969251e-01
4.734428735192969251e-01
4.650363011081390940e-01
4.650363011081390940e-01
4.650363011081390940e-01
4.722965227359571805e-01
4.722965227359571805e-01
4.497516239969430729e-01
4.497516239969430729e-01
4.497516239969430729e-01
4.829957967137944452e-01
4.829957967137944452e-01
4.528085594191822438e-01
4.528085594191822438e-01
4.528085594191822438e-01
4.868169659915934089e-01
4.868169659915934089e-01
4.520443255636224511e-01
4.520443255636224511e-01
4.520443255636224511e-01
4.665647688192586795e-01
4.665647688192586795e-01
4.516622086358425547e-01
4.516622086358425547e-01
4.516622086358425547e-01
4.501337409247229693e-01
4.501337409247229693e-01
4.505158578525028656e-01
4.505158578525028656e-01
4.505158578525028656e-01
4.715322888803973878e-01
4.715322888803973878e-01
4.531906763469621957e-01
4.531906763469621957e-01
4.531906763469621957e-01
4.646541841803591977e-01
4.646541841803591977e-01
4.451662208635842610e-01
4.451662208635842610e-01
4.451662208635842610e-01
4.409629346580053455e-01
4.409629346580053455e-01
4.359954145968666372e-01
4.359954145968666372e-01
4.359954145968666372e-01
4.547191440580817812e-01
4.547191440580817812e-01
4.508979747802827620e-01
4.508979747802827620e-01
4.508979747802827620e-01
4.608330149025601785e-01
4.608330149025601785e-01
4.501337409247229693e-01
4.501337409247229693e-01
4.501337409247229693e-01
4.249140236912495316e-01
4.249140236912495316e-01
4.310278945357279290e-01
4.310278945357279290e-01
4.310278945357279290e-01
4.275888421857088062e-01
4.275888421857088062e-01
4.413450515857852419e-01
4.413450515857852419e-01
4.413450515857852419e-01
4.287351929690485508e-01
4.287351929690485508e-01
4.035154757355751132e-01
4.035154757355751132e-01
4.035154757355751132e-01
4.092472296522736142e-01
4.092472296522736142e-01
3.912877340466182630e-01
3.912877340466182630e-01
3.912877340466182630e-01
3.889950324799388848e-01
3.889950324799388848e-01
3.824990447076805355e-01
3.824990447076805355e-01
3.824990447076805355e-01
3.996943064577760940e-01
3.996943064577760940e-01
4.130683989300725778e-01
4.130683989300725778e-01
4.130683989300725778e-01
3.748567061520825527e-01
3.748567061520825527e-01
4.050439434466946986e-01
4.050439434466946986e-01
4.050439434466946986e-01
3.828811616354604319e-01
3.828811616354604319e-01
3.855559801299197620e-01
3.855559801299197620e-01
3.855559801299197620e-01
3.935804356132976967e-01
3.935804356132976967e-01
3.855559801299197620e-01
3.855559801299197620e-01
3.855559801299197620e-01
3.534581581964080788e-01
3.534581581964080788e-01
3.683607183798242035e-01
3.683607183798242035e-01
3.683607183798242035e-01
3.710355368742835336e-01
3.710355368742835336e-01
3.702713030187237409e-01
3.702713030187237409e-01
3.702713030187237409e-01
3.374092472296522649e-01
3.374092472296522649e-01
3.611004967520061171e-01
3.611004967520061171e-01
3.611004967520061171e-01
3.332059610240733494e-01
3.332059610240733494e-01
3.614826136797860134e-01
3.614826136797860134e-01
3.614826136797860134e-01
3.259457393962552629e-01
3.259457393962552629e-01
3.186855177684371210e-01
3.186855177684371210e-01
3.186855177684371210e-01
3.278563240351547448e-01
3.278563240351547448e-01
3.205961024073366583e-01
3.205961024073366583e-01
3.205961024073366583e-01
3.244172716851356775e-01
3.244172716851356775e-01
3.339701948796331421e-01
3.339701948796331421e-01
3.339701948796331421e-01
3.198318685517768656e-01
3.198318685517768656e-01
2.949942682460833243e-01
2.949942682460833243e-01
2.949942682460833243e-01
3.045471914405808445e-01
3.045471914405808445e-01
3.167749331295376392e-01
3.167749331295376392e-01
3.167749331295376392e-01
2.900267481849446161e-01
2.900267481849446161e-01
3.083683607183798081e-01
3.083683607183798081e-01
3.083683607183798081e-01
2.686282002292701421e-01
2.686282002292701421e-01
2.846771111960260114e-01
2.846771111960260114e-01
2.846771111960260114e-01
2.728314864348490576e-01
2.728314864348490576e-01
2.678639663737103493e-01
2.678639663737103493e-01
2.678639663737103493e-01
2.541077569736339137e-01
2.541077569736339137e-01
2.663354986625907639e-01
2.663354986625907639e-01
2.663354986625907639e-01
2.739778372181887467e-01
2.739778372181887467e-01
2.533435231180741209e-01
2.533435231180741209e-01
2.533435231180741209e-01
2.376767290790982035e-01
2.376767290790982035e-01
2.319449751623997025e-01
2.319449751623997025e-01
2.319449751623997025e-01
2.579289262514329328e-01
2.579289262514329328e-01
2.243026366068016919e-01
2.243026366068016919e-01
2.243026366068016919e-01
2.143675964845242754e-01
2.143675964845242754e-01
2.384409629346579962e-01
2.384409629346579962e-01
2.384409629346579962e-01
2.292701566679404002e-01
2.292701566679404002e-01
2.040504394344669348e-01
2.040504394344669348e-01
2.040504394344669348e-01
2.101643102789453599e-01
2.101643102789453599e-01
2.307986243790599856e-01
2.307986243790599856e-01
2.307986243790599856e-01
2.216278181123423896e-01
2.216278181123423896e-01
2.178066488345433704e-01
2.178066488345433704e-01
2.178066488345433704e-01
2.032862055789071420e-01
2.032862055789071420e-01
2.036683225066870384e-01
2.036683225066870384e-01
2.032862055789071420e-01
2.032862055789071420e-01
2.032862055789071420e-01
1.967902178066488483e-01
1.967902178066488483e-01
1.776843714176538080e-01
1.776843714176538080e-01
1.776843714176538080e-01
2.032862055789071420e-01
2.032862055789071420e-01
2.051967902178066516e-01
2.051967902178066516e-01
2.051967902178066516e-01
1.685135651509361843e-01
1.685135651509361843e-01
1.815055406954527994e-01
1.815055406954527994e-01
1.815055406954527994e-01
2.025219717233473493e-01
2.025219717233473493e-01
1.815055406954527994e-01
1.815055406954527994e-01
1.815055406954527994e-01
1.880015284677111209e-01
1.880015284677111209e-01
1.822697745510126199e-01
1.822697745510126199e-01
1.822697745510126199e-01
1.708062667176155902e-01
1.708062667176155902e-01
1.623996943064577869e-01
1.623996943064577869e-01
1.623996943064577869e-01
1.922048146732900364e-01
1.922048146732900364e-01
1.620175773786778628e-01
1.620175773786778628e-01
1.620175773786778628e-01
1.727168513565150998e-01
1.727168513565150998e-01
1.616354604508979664e-01
1.616354604508979664e-01
1.616354604508979664e-01
1.562858234619793618e-01
1.562858234619793618e-01
1.562858234619793618e-01
1.562858234619793618e-01
1.562858234619793618e-01
1.868551776843714041e-01
1.868551776843714041e-01
1.581964081008788714e-01
1.581964081008788714e-01
1.581964081008788714e-01
1.841803591899121018e-01
1.841803591899121018e-01
1.532288880397401631e-01
1.532288880397401631e-01
1.532288880397401631e-01
1.616354604508979664e-01
1.616354604508979664e-01
1.559037065341994654e-01
1.559037065341994654e-01
1.559037065341994654e-01
1.547573557508597764e-01
1.547573557508597764e-01
1.765380206343140912e-01
1.765380206343140912e-01
1.765380206343140912e-01
1.688956820787160806e-01
1.688956820787160806e-01
1.704241497898356938e-01
1.704241497898356938e-01
1.704241497898356938e-01
1.857088269010317150e-01
1.857088269010317150e-01
1.497898356897210681e-01
1.497898356897210681e-01
1.497898356897210681e-01
1.547573557508597764e-01
1.547573557508597764e-01
1.845624761176920259e-01
1.845624761176920259e-01
1.845624761176920259e-01
1.734810852120748925e-01
1.734810852120748925e-01
1.524646541841803704e-01
1.524646541841803704e-01
1.524646541841803704e-01
1.753916698509744021e-01
1.753916698509744021e-01
1.490256018341612476e-01
1.490256018341612476e-01
1.490256018341612476e-01
1.539931218952999559e-01
1.539931218952999559e-01
1.532288880397401631e-01
1.532288880397401631e-01
1.532288880397401631e-01
1.589606419564386641e-01
1.589606419564386641e-01
1.727168513565150998e-01
1.727168513565150998e-01
1.727168513565150998e-01
1.711883836453954866e-01
1.711883836453954866e-01
1.528467711119602668e-01
1.528467711119602668e-01
1.528467711119602668e-01
1.776843714176538080e-01
1.776843714176538080e-01
1.727168513565150998e-01
1.727168513565150998e-01
1.727168513565150998e-01
1.753916698509744021e-01
1.753916698509744021e-01
1.543752388230798522e-01
1.543752388230798522e-01
1.543752388230798522e-01
1.841803591899121018e-01
1.841803591899121018e-01
1.654566297286969856e-01
1.654566297286969856e-01
1.654566297286969856e-01
1.601069927397783810e-01
1.601069927397783810e-01
1.799770729843332140e-01
1.799770729843332140e-01
1.799770729843332140e-01
1.811234237676729031e-01
1.811234237676729031e-01
1.834161253343523090e-01
1.834161253343523090e-01
1.834161253343523090e-01
1.604891096675582773e-01
1.604891096675582773e-01
1.803591899121131104e-01
1.803591899121131104e-01
1.803591899121131104e-01
1.612533435231180701e-01
1.612533435231180701e-01
1.880015284677111209e-01
1.880015284677111209e-01
1.880015284677111209e-01
1.708062667176155902e-01
1.708062667176155902e-01
1.857088269010317150e-01
1.857088269010317150e-01
1.857088269010317150e-01
1.899121131066106305e-01
1.899121131066106305e-01
1.517004203286205499e-01
1.517004203286205499e-01
1.517004203286205499e-01
1.562858234619793618e-01
1.562858234619793618e-01
1.623996943064577869e-01
1.623996943064577869e-01
1.623996943064577869e-01
1.524646541841803704e-01
1.524646541841803704e-01
1.792128391287733935e-01
1.792128391287733935e-01
1.792128391287733935e-01
1.486434849063813513e-01
1.486434849063813513e-01
1.654566297286969856e-01
1.654566297286969856e-01
1.654566297286969856e-01
1.643102789453572687e-01
1.643102789453572687e-01
1.696599159342759011e-01
1.696599159342759011e-01
1.696599159342759011e-01
1.818876576232326958e-01
1.818876576232326958e-01
1.822697745510126199e-01
1.822697745510126199e-01
1.822697745510126199e-01
1.448223156285823598e-01
1.448223156285823598e-01
1.593427588842185605e-01
1.593427588842185605e-01
1.593427588842185605e-01
1.543752388230798522e-01
1.543752388230798522e-01
1.623996943064577869e-01
1.623996943064577869e-01
1.623996943064577869e-01
1.536110049675200595e-01
1.536110049675200595e-01
1.406190294230034443e-01
1.406190294230034443e-01
1.406190294230034443e-01
1.463507833397019453e-01
1.463507833397019453e-01
1.417653802063431334e-01
1.417653802063431334e-01
1.417653802063431334e-01
1.440580817730225394e-01
1.440580817730225394e-01
1.536110049675200595e-01
1.536110049675200595e-01
1.536110049675200595e-01
1.623996943064577869e-01
1.623996943064577869e-01
1.463507833397019453e-01
1.463507833397019453e-01
1.440580817730225394e-01
1.440580817730225394e-01
1.440580817730225394e-01
1.589606419564386641e-01
1.589606419564386641e-01
1.539931218952999559e-01
1.539931218952999559e-01
1.539931218952999559e-01
1.517004203286205499e-01
1.517004203286205499e-01
1.459686664119220489e-01
1.459686664119220489e-01
1.459686664119220489e-01
1.463507833397019453e-01
1.463507833397019453e-01
1.612533435231180701e-01
1.612533435231180701e-01
1.612533435231180701e-01
1.421474971341230298e-01
1.421474971341230298e-01
1.520825372564004463e-01
1.520825372564004463e-01
1.520825372564004463e-01
1.539931218952999559e-01
1.539931218952999559e-01
1.581964081008788714e-01
1.581964081008788714e-01
1.581964081008788714e-01
1.394726786396637275e-01
1.394726786396637275e-01
1.253343523118074232e-01
1.253343523118074232e-01
1.253343523118074232e-01
1.196025983951089083e-01
1.196025983951089083e-01
1.471150171952617380e-01
1.471150171952617380e-01
1.471150171952617380e-01
1.238058846006878100e-01
1.238058846006878100e-01
1.398547955674436516e-01
1.398547955674436516e-01
1.398547955674436516e-01
1.100496752006113882e-01
1.100496752006113882e-01
1.196025983951089083e-01
1.196025983951089083e-01
1.196025983951089083e-01
1.215131830340084040e-01
1.215131830340084040e-01
1.329766908674054338e-01
1.329766908674054338e-01
1.329766908674054338e-01
1.069927397783721756e-01
1.069927397783721756e-01
1.188383645395491017e-01
1.188383645395491017e-01
1.188383645395491017e-01
1.352693924340848397e-01
1.352693924340848397e-01
1.092854413450515816e-01
1.092854413450515816e-01
1.092854413450515816e-01
1.341230416507451229e-01
1.341230416507451229e-01
1.077569736339319822e-01
1.077569736339319822e-01
1.077569736339319822e-01
1.047000382116927836e-01
1.047000382116927836e-01
9.400076423385556046e-02
9.400076423385556046e-02
9.400076423385556046e-02
1.234237676729079136e-01
1.234237676729079136e-01
1.238058846006878100e-01
1.238058846006878100e-01
1.238058846006878100e-01
9.782193351165456574e-02
9.782193351165456574e-02
1.161635460450897994e-01
1.161635460450897994e-01
1.161635460450897994e-01
9.782193351165456574e-02
9.782193351165456574e-02
9.552923194497515980e-02
9.552923194497515980e-02
9.552923194497515980e-02
8.826901031715704560e-02
8.826901031715704560e-02
8.941536110049674857e-02
8.941536110049674857e-02
8.941536110049674857e-02
8.521207489491784692e-02
8.521207489491784692e-02
1.035536874283530806e-01
1.035536874283530806e-01
1.035536874283530806e-01
8.674054260603744626e-02
8.674054260603744626e-02
9.667558272831486277e-02
9.667558272831486277e-02
9.667558272831486277e-02
1.173098968284295024e-01
1.173098968284295024e-01
8.024455483377913867e-02
8.024455483377913867e-02
8.024455483377913867e-02
9.629346580053496640e-02
9.629346580053496640e-02
1.050821551394726799e-01
1.050821551394726799e-01
1.050821551394726799e-01
9.170806266717615451e-02
9.170806266717615451e-02
7.680550248376002975e-02
7.680550248376002975e-02
7.680550248376002975e-02
7.374856706152083108e-02
7.374856706152083108e-02
7.795185326709973272e-02
7.795185326709973272e-02
7.795185326709973272e-02
7.986243790599924230e-02
7.986243790599924230e-02
8.215513947267863437e-02
8.215513947267863437e-02
8.215513947267863437e-02
1.027894535727932740e-01
1.027894535727932740e-01
1.016431027894535710e-01
1.016431027894535710e-01
1.016431027894535710e-01
6.687046236148261324e-02
6.687046236148261324e-02
9.705769965609475913e-02
9.705769965609475913e-02
9.705769965609475913e-02
9.782193351165456574e-02
9.782193351165456574e-02
9.438288116163545682e-02
9.438288116163545682e-02
9.438288116163545682e-02
6.839893007260221258e-02
6.839893007260221258e-02
7.260221627818112811e-02
7.260221627818112811e-02
7.260221627818112811e-02
9.552923194497515980e-02
9.552923194497515980e-02
7.374856706152083108e-02
7.374856706152083108e-02
7.374856706152083108e-02
8.635842567825754990e-02
8.635842567825754990e-02
9.209017959495605088e-02
9.209017959495605088e-02
9.209017959495605088e-02
5.578907145586549376e-02
5.578907145586549376e-02
8.597630875047763965e-02
8.597630875047763965e-02
8.597630875047763965e-02
6.228505922812380829e-02
6.228505922812380829e-02
5.578907145586549376e-02
5.578907145586549376e-02
5.578907145586549376e-02
8.597630875047763965e-02
8.597630875047763965e-02
8.062667176155903503e-02
8.062667176155903503e-02
8.062667176155903503e-02
8.253725640045854461e-02
8.253725640045854461e-02
6.037447458922430565e-02
6.037447458922430565e-02
6.037447458922430565e-02
5.273213603362628815e-02
5.273213603362628815e-02
5.846388995032479607e-02
5.846388995032479607e-02
5.846388995032479607e-02
6.381352693924341457e-02
6.381352693924341457e-02
5.082155139472678551e-02
5.082155139472678551e-02
5.082155139472678551e-02
6.687046236148261324e-02
6.687046236148261324e-02
4.852884982804737957e-02
4.852884982804737957e-02
4.852884982804737957e-02
5.502483760030569410e-02
5.502483760030569410e-02
4.547191440580817395e-02
4.547191440580817395e-02
4.547191440580817395e-02
7.183798242262132150e-02
7.183798242262132150e-02
8.253725640045854461e-02
8.253725640045854461e-02
4.814673290026748320e-02
4.814673290026748320e-02
4.814673290026748320e-02
6.534199465036301391e-02
6.534199465036301391e-02
5.693542223920519674e-02
5.693542223920519674e-02
5.693542223920519674e-02
7.833397019487962909e-02
7.833397019487962909e-02
9.209017959495605088e-02
9.209017959495605088e-02
9.209017959495605088e-02
8.750477646159725287e-02
8.750477646159725287e-02
7.909820405043943570e-02
7.909820405043943570e-02
7.909820405043943570e-02
8.215513947267863437e-02
8.215513947267863437e-02
1.153993121895299928e-01
1.153993121895299928e-01
1.153993121895299928e-01
1.096675582728314918e-01
1.096675582728314918e-01
9.094382881161634791e-02
9.094382881161634791e-02
9.094382881161634791e-02
1.196025983951089083e-01
1.196025983951089083e-01
1.272449369507069050e-01
1.272449369507069050e-01
1.272449369507069050e-01
1.306839893007260278e-01
1.306839893007260278e-01
1.291555215896064146e-01
1.291555215896064146e-01
1.291555215896064146e-01
1.658387466564768820e-01
1.658387466564768820e-01
1.654566297286969856e-01
1.654566297286969856e-01
1.654566297286969856e-01
1.822697745510126199e-01
1.822697745510126199e-01
1.979365685899885374e-01
1.979365685899885374e-01
1.979365685899885374e-01
1.876194115399312246e-01
1.876194115399312246e-01
2.009935040122277361e-01
2.009935040122277361e-01
2.009935040122277361e-01
2.243026366068016919e-01
2.243026366068016919e-01
2.510508215513947428e-01
2.510508215513947428e-01
2.510508215513947428e-01
2.518150554069545355e-01
2.518150554069545355e-01
2.797095911348873032e-01
2.797095911348873032e-01
2.797095911348873032e-01
2.800917080626671996e-01
2.800917080626671996e-01
3.049293083683607408e-01
3.049293083683607408e-01
3.049293083683607408e-01
3.110431792128391382e-01
3.110431792128391382e-01
2.900267481849446161e-01
2.900267481849446161e-01
2.900267481849446161e-01
3.137179977072984127e-01
3.137179977072984127e-01
3.152464654184180537e-01
3.152464654184180537e-01
3.152464654184180537e-01
3.588077951853266834e-01
3.588077951853266834e-01
3.526939243408482860e-01
3.526939243408482860e-01
3.526939243408482860e-01
3.679786014520443072e-01
3.679786014520443072e-01
3.832632785632403283e-01
3.832632785632403283e-01
3.832632785632403283e-01
3.603362628964463243e-01
3.603362628964463243e-01
3.794421092854413646e-01
3.794421092854413646e-01
3.794421092854413646e-01
4.058081773022544914e-01
4.058081773022544914e-01
4.035154757355751132e-01
4.035154757355751132e-01
4.035154757355751132e-01
3.909056171188383666e-01
3.909056171188383666e-01
4.256782575468093244e-01
4.256782575468093244e-01
4.256782575468093244e-01
4.199465036301108234e-01
4.199465036301108234e-01
4.382881161635460709e-01
4.382881161635460709e-01
4.382881161635460709e-01
4.161253343523118042e-01
4.161253343523118042e-01
4.497516239969430729e-01
4.497516239969430729e-01
4.497516239969430729e-01
4.547191440580817812e-01
4.547191440580817812e-01
4.520443255636224511e-01
4.520443255636224511e-01
4.520443255636224511e-01
4.314100114635078254e-01
4.314100114635078254e-01
4.604508979747802822e-01
4.604508979747802822e-01
4.604508979747802822e-01
4.600687810470003858e-01
4.600687810470003858e-01
4.531906763469621957e-01
4.531906763469621957e-01
4.531906763469621957e-01
4.677111196025983686e-01
4.677111196025983686e-01
4.696217042414979059e-01
4.696217042414979059e-01
4.696217042414979059e-01
4.447841039358043647e-01
4.447841039358043647e-01
4.512800917080626584e-01
4.512800917080626584e-01
4.512800917080626584e-01
4.375238823079862227e-01
4.375238823079862227e-01
4.356132976690867409e-01
4.356132976690867409e-01
4.356132976690867409e-01
4.700038211692778023e-01
4.700038211692778023e-01
4.386702330913259673e-01
4.386702330913259673e-01
4.386702330913259673e-01
4.306457776079480326e-01
4.306457776079480326e-01
4.612151318303400749e-01
4.612151318303400749e-01
4.612151318303400749e-01
4.409629346580053455e-01
4.409629346580053455e-01
4.260603744745892207e-01
4.260603744745892207e-01
4.260603744745892207e-01
4.390523500191058637e-01
4.390523500191058637e-01
4.348490638135269482e-01
4.348490638135269482e-01
4.348490638135269482e-01
4.172716851356514933e-01
4.172716851356514933e-01
4.333205961024073627e-01
4.333205961024073627e-01
4.333205961024073627e-01
4.119220481467328887e-01
4.119220481467328887e-01
4.077187619411539732e-01
4.077187619411539732e-01
4.077187619411539732e-01
4.077187619411539732e-01
4.077187619411539732e-01
4.252961406190294280e-01
4.252961406190294280e-01
4.252961406190294280e-01
4.153611004967520115e-01
4.153611004967520115e-01
4.161253343523118042e-01
4.161253343523118042e-01
4.161253343523118042e-01
4.130683989300725778e-01
4.130683989300725778e-01
3.931983186855177448e-01
3.931983186855177448e-01
3.931983186855177448e-01
3.893771494077187811e-01
3.893771494077187811e-01
4.073366450133740768e-01
4.073366450133740768e-01
4.073366450133740768e-01
3.878486816965991402e-01
3.878486816965991402e-01
3.962552541077569712e-01
3.962552541077569712e-01
3.962552541077569712e-01
3.626289644631257025e-01
3.626289644631257025e-01
3.553687428353076161e-01
3.553687428353076161e-01
3.668322506687046181e-01
3.668322506687046181e-01
3.668322506687046181e-01
3.695070691631639481e-01
3.695070691631639481e-01
3.664501337409247217e-01
3.664501337409247217e-01
3.664501337409247217e-01
3.492548719908292187e-01
3.492548719908292187e-01
3.419946503630110768e-01
3.419946503630110768e-01
3.419946503630110768e-01
3.630110813909055989e-01
3.630110813909055989e-01
3.400840657241115950e-01
3.400840657241115950e-01
3.400840657241115950e-01
3.358807795185326794e-01
3.358807795185326794e-01
3.343523118074130940e-01
3.343523118074130940e-01
3.343523118074130940e-01
3.488727550630492669e-01
3.488727550630492669e-01
3.446694688574704069e-01
3.446694688574704069e-01
3.446694688574704069e-01
3.267099732518150557e-01
3.267099732518150557e-01
3.324417271685135566e-01
3.324417271685135566e-01
3.324417271685135566e-01
3.068398930072602226e-01
3.068398930072602226e-01
3.011081390905617217e-01
3.011081390905617217e-01
3.011081390905617217e-01
3.156285823461979501e-01
3.156285823461979501e-01
3.030187237294612035e-01
3.030187237294612035e-01
3.030187237294612035e-01
3.083683607183798081e-01
3.083683607183798081e-01
3.083683607183798081e-01
3.083683607183798081e-01
3.083683607183798081e-01
2.823844096293465777e-01
2.823844096293465777e-01
2.670997325181505566e-01
2.670997325181505566e-01
2.670997325181505566e-01
2.747420710737485394e-01
2.747420710737485394e-01
2.648070309514711229e-01
2.648070309514711229e-01
2.648070309514711229e-01
2.659533817348108675e-01
2.659533817348108675e-01
2.651891478792510748e-01
2.651891478792510748e-01
2.651891478792510748e-01
2.724493695070691612e-01
2.724493695070691612e-01
2.399694306457776094e-01
2.399694306457776094e-01
2.399694306457776094e-01
2.399694306457776094e-01
2.399694306457776094e-01
2.258311043179212774e-01
2.258311043179212774e-01
2.258311043179212774e-01
2.162781811234237572e-01
2.162781811234237572e-01
2.372946121513183071e-01
2.372946121513183071e-01
2.372946121513183071e-01
2.319449751623997025e-01
2.319449751623997025e-01
2.361482613679785902e-01
2.361482613679785902e-01
2.361482613679785902e-01
2.029040886511272457e-01
2.029040886511272457e-01
2.136033626289644549e-01
2.136033626289644549e-01
2.136033626289644549e-01
1.944975162399694424e-01
1.944975162399694424e-01
1.849445930454719222e-01
1.849445930454719222e-01
1.849445930454719222e-01
2.128391287734046622e-01
2.128391287734046622e-01
2.113106610622850490e-01
2.113106610622850490e-01
2.113106610622850490e-01
1.769201375620939876e-01
1.769201375620939876e-01
1.922048146732900364e-01
1.922048146732900364e-01
1.922048146732900364e-01
1.765380206343140912e-01
1.765380206343140912e-01
1.887657623232709136e-01
1.887657623232709136e-01
1.887657623232709136e-01
1.895299961788307341e-01
1.895299961788307341e-01
1.669850974398165711e-01
1.669850974398165711e-01
1.669850974398165711e-01
1.524646541841803704e-01
1.524646541841803704e-01
1.444401987008024357e-01
1.444401987008024357e-01
1.444401987008024357e-01
1.627818112342376833e-01
1.627818112342376833e-01
1.513183034008406536e-01
1.513183034008406536e-01
1.513183034008406536e-01
1.375620940007642456e-01
1.375620940007642456e-01
1.390905617118838311e-01
1.390905617118838311e-01
1.390905617118838311e-01
1.325945739396255374e-01
1.325945739396255374e-01
1.291555215896064146e-01
1.291555215896064146e-01
1.291555215896064146e-01
1.517004203286205499e-01
1.517004203286205499e-01
1.249522353840275130e-01
1.249522353840275130e-01
1.249522353840275130e-01
1.325945739396255374e-01
1.325945739396255374e-01
1.394726786396637275e-01
1.394726786396637275e-01
1.394726786396637275e-01
1.444401987008024357e-01
1.444401987008024357e-01
1.215131830340084040e-01
1.215131830340084040e-01
1.215131830340084040e-01
1.494077187619411440e-01
1.494077187619411440e-01
1.268628200229270087e-01
1.268628200229270087e-01
1.268628200229270087e-01
1.142529614061902898e-01
1.142529614061902898e-01
1.398547955674436516e-01
1.398547955674436516e-01
1.398547955674436516e-01
1.471150171952617380e-01
1.471150171952617380e-01
1.295376385173863110e-01
1.295376385173863110e-01
1.295376385173863110e-01
1.161635460450897994e-01
1.161635460450897994e-01
1.299197554451662073e-01
1.299197554451662073e-01
1.299197554451662073e-01
1.448223156285823598e-01
1.448223156285823598e-01
1.173098968284295024e-01
1.173098968284295024e-01
1.173098968284295024e-01
1.104317921283912846e-01
1.104317921283912846e-01
1.138708444784103935e-01
1.138708444784103935e-01
1.138708444784103935e-01
1.463507833397019453e-01
1.463507833397019453e-01
1.196025983951089083e-01
1.196025983951089083e-01
1.196025983951089083e-01
1.440580817730225394e-01
1.440580817730225394e-01
1.417653802063431334e-01
1.417653802063431334e-01
1.417653802063431334e-01
1.314482231562858205e-01
1.314482231562858205e-01
1.318303400840657169e-01
1.318303400840657169e-01
1.318303400840657169e-01
1.123423767672907941e-01
1.123423767672907941e-01
1.142529614061902898e-01
1.142529614061902898e-01
1.142529614061902898e-01
1.153993121895299928e-01
1.153993121895299928e-01
1.371799770729843215e-01
1.371799770729843215e-01
1.371799770729843215e-01
1.329766908674054338e-01
1.329766908674054338e-01
1.345051585785250192e-01
1.345051585785250192e-01
1.471150171952617380e-01
1.471150171952617380e-01
1.471150171952617380e-01
1.245701184562476166e-01
1.245701184562476166e-01
1.188383645395491017e-01
1.188383645395491017e-01
1.188383645395491017e-01
1.448223156285823598e-01
1.448223156285823598e-01
1.230416507451280034e-01
1.230416507451280034e-01
1.230416507451280034e-01
1.199847153228888047e-01
1.199847153228888047e-01
1.490256018341612476e-01
1.490256018341612476e-01
1.490256018341612476e-01
1.207489491784486113e-01
1.207489491784486113e-01
1.505540695452808608e-01
1.505540695452808608e-01
1.505540695452808608e-01
1.425296140619029539e-01
1.425296140619029539e-01
1.287734046618265182e-01
1.287734046618265182e-01
1.287734046618265182e-01
1.371799770729843215e-01
1.371799770729843215e-01
1.501719526175009645e-01
1.501719526175009645e-01
1.501719526175009645e-01
1.345051585785250192e-01
1.345051585785250192e-01
1.417653802063431334e-01
1.417653802063431334e-01
1.417653802063431334e-01
1.536110049675200595e-01
1.536110049675200595e-01
1.486434849063813513e-01
1.486434849063813513e-01
1.486434849063813513e-01
1.490256018341612476e-01
1.490256018341612476e-01
1.440580817730225394e-01
1.440580817730225394e-01
1.440580817730225394e-01
1.520825372564004463e-01
1.520825372564004463e-01
1.192204814673289981e-01
1.192204814673289981e-01
1.192204814673289981e-01
1.238058846006878100e-01
1.238058846006878100e-01
1.173098968284295024e-01
1.173098968284295024e-01
1.173098968284295024e-01
1.417653802063431334e-01
1.417653802063431334e-01
1.199847153228888047e-01
1.199847153228888047e-01
1.199847153228888047e-01
1.329766908674054338e-01
1.329766908674054338e-01
1.176920137562093988e-01
1.176920137562093988e-01
1.176920137562093988e-01
1.169277799006495921e-01
1.169277799006495921e-01
1.161635460450897994e-01
1.161635460450897994e-01
1.161635460450897994e-01
1.276270538784868291e-01
1.276270538784868291e-01
1.314482231562858205e-01
1.314482231562858205e-01
1.314482231562858205e-01
1.230416507451280034e-01
1.230416507451280034e-01
1.417653802063431334e-01
1.417653802063431334e-01
1.417653802063431334e-01
1.383263278563240384e-01
1.383263278563240384e-01
1.444401987008024357e-01
1.444401987008024357e-01
1.444401987008024357e-01
1.287734046618265182e-01
1.287734046618265182e-01
1.241880015284677063e-01
1.241880015284677063e-01
1.241880015284677063e-01
1.111960259839510912e-01
1.111960259839510912e-01
1.108139090561711948e-01
1.108139090561711948e-01
1.108139090561711948e-01
1.260985861673672159e-01
1.260985861673672159e-01
1.360336262896446324e-01
1.360336262896446324e-01
1.360336262896446324e-01
1.230416507451280034e-01
1.230416507451280034e-01
1.150171952617500964e-01
1.150171952617500964e-01
1.150171952617500964e-01
1.238058846006878100e-01
1.238058846006878100e-01
1.196025983951089083e-01
1.196025983951089083e-01
1.196025983951089083e-01
1.085212074894917889e-01
1.085212074894917889e-01
9.820405043943446211e-02
9.820405043943446211e-02
9.820405043943446211e-02
1.039358043561329770e-01
1.039358043561329770e-01
9.514711501719526343e-02
9.514711501719526343e-02
9.514711501719526343e-02
1.180741306839892951e-01
1.180741306839892951e-01
1.169277799006495921e-01
1.169277799006495921e-01
1.169277799006495921e-01
9.056171188383645154e-02
9.056171188383645154e-02
9.056171188383645154e-02
9.056171188383645154e-02
9.056171188383645154e-02
9.056171188383645154e-02
9.056171188383645154e-02
8.750477646159725287e-02
8.750477646159725287e-02
8.750477646159725287e-02
8.826901031715704560e-02
8.826901031715704560e-02
8.597630875047763965e-02
8.597630875047763965e-02
8.597630875047763965e-02
1.165456629728696958e-01
1.165456629728696958e-01
9.209017959495605088e-02
9.209017959495605088e-02
9.209017959495605088e-02
8.139090561711884164e-02
8.139090561711884164e-02
1.134887275506304971e-01
1.134887275506304971e-01
1.134887275506304971e-01
9.094382881161634791e-02
9.094382881161634791e-02
7.871608712265953933e-02
7.871608712265953933e-02
7.871608712265953933e-02
1.104317921283912846e-01
1.104317921283912846e-01
8.406572411157814395e-02
8.406572411157814395e-02
8.406572411157814395e-02
9.514711501719526343e-02
9.514711501719526343e-02
8.177302254489873801e-02
8.177302254489873801e-02
8.177302254489873801e-02
1.058463889950324865e-01
1.058463889950324865e-01
1.035536874283530806e-01
1.035536874283530806e-01
1.035536874283530806e-01
9.552923194497515980e-02
9.552923194497515980e-02
7.565915170042032678e-02
7.565915170042032678e-02
7.565915170042032678e-02
8.330149025601833734e-02
8.330149025601833734e-02
6.343141001146350433e-02
6.343141001146350433e-02
6.343141001146350433e-02
7.833397019487962909e-02
7.833397019487962909e-02
6.916316392816201919e-02
6.916316392816201919e-02
6.916316392816201919e-02
6.419564386702331094e-02
6.419564386702331094e-02
8.024455483377913867e-02
8.024455483377913867e-02
8.024455483377913867e-02
9.438288116163545682e-02
9.438288116163545682e-02
6.037447458922430565e-02
6.037447458922430565e-02
6.037447458922430565e-02
5.846388995032479607e-02
5.846388995032479607e-02
5.617118838364539707e-02
5.617118838364539707e-02
6.228505922812380829e-02
6.228505922812380829e-02
6.228505922812380829e-02
6.075659151700420202e-02
6.075659151700420202e-02
5.387848681696599112e-02
5.387848681696599112e-02
5.387848681696599112e-02
8.406572411157814395e-02
8.406572411157814395e-02
6.610622850592280664e-02
6.610622850592280664e-02
6.610622850592280664e-02
5.082155139472678551e-02
5.082155139472678551e-02
7.374856706152083108e-02
7.374856706152083108e-02
7.374856706152083108e-02
8.139090561711884164e-02
8.139090561711884164e-02
7.795185326709973272e-02
7.795185326709973272e-02
7.795185326709973272e-02
7.030951471150172216e-02
7.030951471150172216e-02
5.005731753916698584e-02
5.005731753916698584e-02
5.005731753916698584e-02
5.999235766144440235e-02
5.999235766144440235e-02
7.986243790599924230e-02
7.986243790599924230e-02
7.986243790599924230e-02
4.661826518914787693e-02
4.661826518914787693e-02
6.190294230034390499e-02
6.190294230034390499e-02
6.190294230034390499e-02
7.527703477264043042e-02
7.527703477264043042e-02
7.451280091708062381e-02
7.451280091708062381e-02
7.451280091708062381e-02
4.317921283912877495e-02
4.317921283912877495e-02
4.203286205578907198e-02
4.203286205578907198e-02
4.203286205578907198e-02
5.693542223920519674e-02
5.693542223920519674e-02
7.069163163928161853e-02
7.069163163928161853e-02
7.069163163928161853e-02
5.731753916698510004e-02
5.731753916698510004e-02
5.808177302254489971e-02
5.808177302254489971e-02
5.808177302254489971e-02
5.884600687810469938e-02
5.884600687810469938e-02
4.088651127244936900e-02
4.088651127244936900e-02
4.088651127244936900e-02
5.999235766144440235e-02
5.999235766144440235e-02
4.891096675582728287e-02
4.891096675582728287e-02
4.891096675582728287e-02
3.133358807795185580e-02
3.133358807795185580e-02
4.165074512800916867e-02
4.165074512800916867e-02
4.165074512800916867e-02
5.120366832250668881e-02
5.120366832250668881e-02
3.324417271685135844e-02
3.324417271685135844e-02
3.324417271685135844e-02
3.018723729461215283e-02
3.018723729461215283e-02
6.190294230034390499e-02
6.190294230034390499e-02
6.190294230034390499e-02
3.056935422239205266e-02
3.056935422239205266e-02
4.317921283912877495e-02
4.317921283912877495e-02
4.317921283912877495e-02
4.661826518914787693e-02
4.661826518914787693e-02
5.808177302254489971e-02
5.808177302254489971e-02
5.808177302254489971e-02
2.751241880015284705e-02
2.751241880015284705e-02
5.387848681696599112e-02
5.387848681696599112e-02
5.387848681696599112e-02
4.814673290026748320e-02
4.814673290026748320e-02
6.304929308368360796e-02
6.304929308368360796e-02
6.304929308368360796e-02
3.247993886129155183e-02
3.247993886129155183e-02
5.540695452808559740e-02
5.540695452808559740e-02
5.540695452808559740e-02
5.884600687810469938e-02
5.884600687810469938e-02
5.922812380588460268e-02
5.922812380588460268e-02
5.922812380588460268e-02
6.152082537256400169e-02
6.152082537256400169e-02
3.591899121131066075e-02
3.591899121131066075e-02
3.591899121131066075e-02
5.158578525028658518e-02
5.158578525028658518e-02
4.700038211692778023e-02
4.700038211692778023e-02
4.700038211692778023e-02
7.107374856706151489e-02
7.107374856706151489e-02
5.005731753916698584e-02
5.005731753916698584e-02
5.005731753916698584e-02
8.941536110049674857e-02
8.941536110049674857e-02
9.209017959495605088e-02
9.209017959495605088e-02
9.209017959495605088e-02
9.132594573939625815e-02
9.132594573939625815e-02
1.077569736339319822e-01
1.077569736339319822e-01
1.077569736339319822e-01
9.705769965609475913e-02
9.705769965609475913e-02
1.012609858616736747e-01
1.012609858616736747e-01
1.012609858616736747e-01
1.127244936950706905e-01
1.127244936950706905e-01
1.471150171952617380e-01
1.471150171952617380e-01
1.471150171952617380e-01
1.291555215896064146e-01
1.291555215896064146e-01
1.685135651509361843e-01
1.685135651509361843e-01
1.685135651509361843e-01
1.654566297286969856e-01
1.654566297286969856e-01
1.880015284677111209e-01
1.880015284677111209e-01
1.880015284677111209e-01
2.009935040122277361e-01
2.009935040122277361e-01
2.036683225066870384e-01
2.036683225066870384e-01
2.036683225066870384e-01
2.208635842567825691e-01
2.208635842567825691e-01
2.361482613679785902e-01
2.361482613679785902e-01
2.361482613679785902e-01
2.208635842567825691e-01
2.208635842567825691e-01
2.678639663737103493e-01
2.678639663737103493e-01
2.678639663737103493e-01
2.449369507069163177e-01
2.449369507069163177e-01
2.904088651127245124e-01
2.904088651127245124e-01
2.904088651127245124e-01
2.678639663737103493e-01
2.678639663737103493e-01
2.904088651127245124e-01
2.904088651127245124e-01
2.904088651127245124e-01
