3.595720290408865316e-01
3.748567061520825527e-01
3.748567061520825527e-01
3.580435613297668906e-01
3.580435613297668906e-01
3.580435613297668906e-01
3.840275124188001765e-01
3.840275124188001765e-01
3.672143675964845144e-01
3.672143675964845144e-01
3.672143675964845144e-01
3.721818876576232227e-01
3.721818876576232227e-01
3.458158196408100959e-01
3.458158196408100959e-01
3.458158196408100959e-01
3.454337027130301996e-01
3.454337027130301996e-01
3.500191058463890115e-01
3.500191058463890115e-01
3.500191058463890115e-01
3.637753152464653916e-01
3.637753152464653916e-01
3.412304165074512841e-01
3.412304165074512841e-01
3.412304165074512841e-01
3.568972105464272015e-01
3.568972105464272015e-01
3.286205578907145375e-01
3.286205578907145375e-01
3.286205578907145375e-01
3.228888039740160365e-01
3.228888039740160365e-01
3.473442873519296814e-01
3.473442873519296814e-01
3.473442873519296814e-01
3.312953763851738676e-01
3.312953763851738676e-01
3.133358807795185164e-01
3.133358807795185164e-01
3.133358807795185164e-01
3.339701948796331421e-01
3.339701948796331421e-01
3.045471914405808445e-01
3.045471914405808445e-01
3.045471914405808445e-01
3.083683607183798081e-01
3.083683607183798081e-01
3.083683607183798081e-01
3.083683607183798081e-01
3.083683607183798081e-01
2.969048528849828061e-01
2.969048528849828061e-01
3.244172716851356775e-01
3.244172716851356775e-01
3.244172716851356775e-01
3.026366068016813071e-01
3.026366068016813071e-01
3.156285823461979501e-01
3.156285823461979501e-01
3.156285823461979501e-01
3.167749331295376392e-01
3.167749331295376392e-01
3.053114252961406372e-01
3.053114252961406372e-01
3.053114252961406372e-01
3.026366068016813071e-01
3.026366068016813071e-01
3.125716469239587236e-01
3.125716469239587236e-01
3.125716469239587236e-01
3.030187237294612035e-01
3.030187237294612035e-01
2.800917080626671996e-01
2.800917080626671996e-01
2.800917080626671996e-01
3.053114252961406372e-01
3.053114252961406372e-01
2.835307604126862668e-01
2.835307604126862668e-01
2.835307604126862668e-01
2.770347726404279731e-01
2.770347726404279731e-01
3.053114252961406372e-01
3.053114252961406372e-01
3.053114252961406372e-01
2.873519296904852860e-01
2.873519296904852860e-01
2.942300343905234761e-01
2.942300343905234761e-01
2.942300343905234761e-01
2.900267481849446161e-01
2.900267481849446161e-01
2.934658005349636833e-01
2.934658005349636833e-01
2.934658005349636833e-01
2.628964463125716411e-01
2.628964463125716411e-01
2.984333205961023916e-01
2.984333205961023916e-01
2.984333205961023916e-01
2.888803974016048715e-01
2.888803974016048715e-01
2.766526557126480768e-01
2.766526557126480768e-01
2.766526557126480768e-01
2.594573939625525183e-01
2.594573939625525183e-01
2.808559419182269923e-01
2.808559419182269923e-01
2.808559419182269923e-01
2.667176155903706603e-01
2.667176155903706603e-01
2.911730989682843052e-01
2.911730989682843052e-01
2.911730989682843052e-01
2.800917080626671996e-01
2.800917080626671996e-01
2.682460833014902457e-01
2.682460833014902457e-01
2.682460833014902457e-01
2.877340466182651824e-01
2.877340466182651824e-01
2.556362246847535546e-01
2.556362246847535546e-01
2.556362246847535546e-01
2.816201757737867850e-01
2.816201757737867850e-01
2.617500955292319520e-01
2.617500955292319520e-01
2.617500955292319520e-01
2.816201757737867850e-01
2.816201757737867850e-01
2.521971723347344319e-01
2.521971723347344319e-01
2.521971723347344319e-01
2.537256400458540173e-01
2.537256400458540173e-01
2.651891478792510748e-01
2.651891478792510748e-01
2.651891478792510748e-01
2.636606801681314338e-01
2.636606801681314338e-01
2.690103171570500384e-01
2.690103171570500384e-01
2.690103171570500384e-01
2.434084829957967044e-01
2.434084829957967044e-01
2.625143293847917447e-01
2.625143293847917447e-01
2.625143293847917447e-01
2.636606801681314338e-01
2.636606801681314338e-01
2.564004585403133474e-01
2.564004585403133474e-01
2.564004585403133474e-01
2.667176155903706603e-01
2.667176155903706603e-01
2.464654184180359309e-01
2.464654184180359309e-01
2.464654184180359309e-01
2.468475353458158272e-01
2.468475353458158272e-01
2.338555598012991843e-01
2.338555598012991843e-01
2.338555598012991843e-01
2.514329384791746391e-01
2.514329384791746391e-01
2.464654184180359309e-01
2.464654184180359309e-01
2.464654184180359309e-01
2.330913259457393916e-01
2.330913259457393916e-01
2.342376767290791084e-01
2.342376767290791084e-01
2.342376767290791084e-01
2.479938861291555163e-01
2.479938861291555163e-01
2.464654184180359309e-01
2.464654184180359309e-01
2.464654184180359309e-01
2.491402369124952332e-01
2.491402369124952332e-01
2.285059228123805797e-01
2.285059228123805797e-01
2.285059228123805797e-01
2.254489873901413810e-01
2.254489873901413810e-01
2.510508215513947428e-01
2.510508215513947428e-01
2.510508215513947428e-01
2.285059228123805797e-01
2.285059228123805797e-01
2.166602980512036813e-01
2.166602980512036813e-01
2.166602980512036813e-01
2.281238058846006833e-01
2.281238058846006833e-01
2.426442491402369117e-01
2.426442491402369117e-01
2.426442491402369117e-01
2.411157814291172985e-01
2.411157814291172985e-01
2.395873137179977130e-01
2.395873137179977130e-01
2.395873137179977130e-01
2.227741688956820787e-01
2.227741688956820787e-01
2.350019105846389011e-01
2.350019105846389011e-01
2.330913259457393916e-01
2.330913259457393916e-01
2.330913259457393916e-01
2.346197936568590048e-01
2.346197936568590048e-01
2.189529996178830595e-01
2.189529996178830595e-01
2.189529996178830595e-01
2.071073748567061612e-01
2.071073748567061612e-01
2.174245319067634741e-01
2.174245319067634741e-01
2.174245319067634741e-01
2.086358425678257467e-01
2.086358425678257467e-01
2.139854795567443513e-01
2.139854795567443513e-01
2.139854795567443513e-01
2.277416889568207869e-01
2.277416889568207869e-01
2.143675964845242754e-01
2.143675964845242754e-01
2.143675964845242754e-01
2.227741688956820787e-01
2.227741688956820787e-01
2.212457011845624655e-01
2.212457011845624655e-01
2.212457011845624655e-01
2.193351165456629837e-01
2.193351165456629837e-01
1.891478792510508100e-01
1.891478792510508100e-01
1.891478792510508100e-01
1.910584638899503196e-01
1.910584638899503196e-01
2.006113870844478397e-01
2.006113870844478397e-01
2.006113870844478397e-01
1.876194115399312246e-01
1.876194115399312246e-01
2.113106610622850490e-01
2.113106610622850490e-01
2.113106610622850490e-01
1.872372946121513282e-01
1.872372946121513282e-01
2.067252579289262648e-01
2.067252579289262648e-01
2.067252579289262648e-01
1.868551776843714041e-01
1.868551776843714041e-01
2.063431410011463407e-01
2.063431410011463407e-01
2.063431410011463407e-01
2.048146732900267553e-01
2.048146732900267553e-01
1.849445930454719222e-01
1.849445930454719222e-01
1.849445930454719222e-01
1.983186855177684338e-01
1.983186855177684338e-01
1.826518914787925163e-01
1.826518914787925163e-01
1.826518914787925163e-01
1.761559037065341948e-01
1.761559037065341948e-01
1.883836453954910173e-01
1.883836453954910173e-01
1.883836453954910173e-01
1.837982422621322054e-01
1.837982422621322054e-01
1.864730607565915077e-01
1.864730607565915077e-01
1.864730607565915077e-01
1.998471532288880470e-01
1.998471532288880470e-01
1.987008024455483302e-01
1.987008024455483302e-01
1.987008024455483302e-01
1.941153993121895183e-01
1.941153993121895183e-01
1.983186855177684338e-01
1.983186855177684338e-01
1.983186855177684338e-01
1.711883836453954866e-01
1.711883836453954866e-01
1.776843714176538080e-01
1.776843714176538080e-01
1.776843714176538080e-01
1.922048146732900364e-01
1.922048146732900364e-01
1.708062667176155902e-01
1.708062667176155902e-01
1.708062667176155902e-01
1.604891096675582773e-01
1.604891096675582773e-01
1.715705005731753829e-01
1.715705005731753829e-01
1.715705005731753829e-01
1.880015284677111209e-01
1.880015284677111209e-01
1.543752388230798522e-01
1.543752388230798522e-01
1.543752388230798522e-01
1.837982422621322054e-01
1.837982422621322054e-01
1.593427588842185605e-01
1.593427588842185605e-01
1.593427588842185605e-01
1.662208635842567783e-01
1.662208635842567783e-01
1.677493312953763915e-01
1.677493312953763915e-01
1.677493312953763915e-01
1.776843714176538080e-01
1.776843714176538080e-01
1.753916698509744021e-01
1.753916698509744021e-01
1.753916698509744021e-01
1.837982422621322054e-01
1.837982422621322054e-01
1.627818112342376833e-01
1.627818112342376833e-01
1.627818112342376833e-01
1.704241497898356938e-01
1.704241497898356938e-01
1.727168513565150998e-01
1.727168513565150998e-01
1.727168513565150998e-01
1.765380206343140912e-01
1.765380206343140912e-01
1.467329002674818417e-01
1.467329002674818417e-01
1.467329002674818417e-01
1.505540695452808608e-01
1.505540695452808608e-01
1.440580817730225394e-01
1.440580817730225394e-01
1.440580817730225394e-01
1.482613679786014549e-01
1.482613679786014549e-01
1.639281620175773724e-01
1.639281620175773724e-01
1.639281620175773724e-01
1.429117309896828503e-01
1.429117309896828503e-01
1.459686664119220489e-01
1.459686664119220489e-01
1.459686664119220489e-01
1.688956820787160806e-01
1.688956820787160806e-01
1.371799770729843215e-01
1.371799770729843215e-01
1.371799770729843215e-01
1.440580817730225394e-01
1.440580817730225394e-01
1.486434849063813513e-01
1.486434849063813513e-01
1.486434849063813513e-01
1.543752388230798522e-01
1.543752388230798522e-01
1.513183034008406536e-01
1.513183034008406536e-01
1.513183034008406536e-01
1.528467711119602668e-01
1.528467711119602668e-01
1.455865494841421526e-01
1.455865494841421526e-01
1.455865494841421526e-01
1.509361864730607572e-01
1.509361864730607572e-01
1.471150171952617380e-01
1.471150171952617380e-01
1.471150171952617380e-01
1.375620940007642456e-01
1.375620940007642456e-01
1.379442109285441420e-01
1.379442109285441420e-01
1.379442109285441420e-01
1.295376385173863110e-01
1.295376385173863110e-01
1.497898356897210681e-01
1.497898356897210681e-01
1.497898356897210681e-01
1.280091708062667255e-01
1.280091708062667255e-01
1.249522353840275130e-01
1.249522353840275130e-01
1.249522353840275130e-01
1.452044325563622562e-01
1.452044325563622562e-01
1.467329002674818417e-01
1.467329002674818417e-01
1.467329002674818417e-01
1.524646541841803704e-01
1.524646541841803704e-01
1.494077187619411440e-01
1.494077187619411440e-01
1.494077187619411440e-01
1.234237676729079136e-01
1.234237676729079136e-01
1.417653802063431334e-01
1.417653802063431334e-01
1.345051585785250192e-01
1.345051585785250192e-01
1.345051585785250192e-01
1.165456629728696958e-01
1.165456629728696958e-01
1.494077187619411440e-01
1.494077187619411440e-01
1.494077187619411440e-01
1.287734046618265182e-01
1.287734046618265182e-01
1.318303400840657169e-01
1.318303400840657169e-01
1.318303400840657169e-01
1.142529614061902898e-01
1.142529614061902898e-01
1.436759648452426430e-01
1.436759648452426430e-01
1.436759648452426430e-01
1.429117309896828503e-01
1.429117309896828503e-01
1.367978601452044252e-01
1.367978601452044252e-01
1.367978601452044252e-01
1.413832632785632371e-01
1.413832632785632371e-01
1.291555215896064146e-01
1.291555215896064146e-01
1.291555215896064146e-01
1.153993121895299928e-01
1.153993121895299928e-01
1.276270538784868291e-01
1.276270538784868291e-01
1.276270538784868291e-01
1.104317921283912846e-01
1.104317921283912846e-01
1.230416507451280034e-01
1.230416507451280034e-01
1.230416507451280034e-01
1.192204814673289981e-01
1.192204814673289981e-01
1.329766908674054338e-01
1.329766908674054338e-01
1.329766908674054338e-01
1.249522353840275130e-01
1.249522353840275130e-01
1.092854413450515816e-01
1.092854413450515816e-01
1.092854413450515816e-01
1.196025983951089083e-01
1.196025983951089083e-01
1.364157432174245288e-01
1.364157432174245288e-01
1.364157432174245288e-01
1.345051585785250192e-01
1.345051585785250192e-01
1.360336262896446324e-01
1.360336262896446324e-01
1.360336262896446324e-01
1.337409247229652265e-01
1.337409247229652265e-01
1.348872755063049156e-01
1.348872755063049156e-01
1.348872755063049156e-01
1.337409247229652265e-01
1.337409247229652265e-01
1.226595338173481070e-01
1.226595338173481070e-01
1.226595338173481070e-01
1.234237676729079136e-01
1.234237676729079136e-01
1.108139090561711948e-01
1.108139090561711948e-01
1.108139090561711948e-01
1.425296140619029539e-01
1.425296140619029539e-01
1.417653802063431334e-01
1.417653802063431334e-01
1.417653802063431334e-01
1.429117309896828503e-01
1.429117309896828503e-01
1.230416507451280034e-01
1.230416507451280034e-01
1.230416507451280034e-01
1.211310661062285077e-01
1.211310661062285077e-01
1.345051585785250192e-01
1.345051585785250192e-01
1.345051585785250192e-01
1.360336262896446324e-01
1.360336262896446324e-01
1.352693924340848397e-01
1.352693924340848397e-01
1.352693924340848397e-01
1.532288880397401631e-01
1.532288880397401631e-01
1.463507833397019453e-01
1.463507833397019453e-01
1.463507833397019453e-01
1.662208635842567783e-01
1.662208635842567783e-01
1.792128391287733935e-01
1.792128391287733935e-01
1.792128391287733935e-01
1.883836453954910173e-01
1.883836453954910173e-01
1.727168513565150998e-01
1.727168513565150998e-01
1.727168513565150998e-01
1.860909438288116113e-01
1.860909438288116113e-01
1.952617500955292351e-01
1.952617500955292351e-01
1.952617500955292351e-01
2.235384027512418714e-01
2.235384027512418714e-01
2.223920519679021823e-01
2.223920519679021823e-01
2.223920519679021823e-01
2.250668704623614846e-01
2.250668704623614846e-01
2.174245319067634741e-01
2.174245319067634741e-01
2.174245319067634741e-01
2.158960641956438609e-01
2.158960641956438609e-01
2.437905999235766008e-01
2.437905999235766008e-01
2.437905999235766008e-01
2.499044707680550259e-01
2.499044707680550259e-01
2.728314864348490576e-01
2.728314864348490576e-01
2.728314864348490576e-01
2.713030187237294721e-01
2.713030187237294721e-01
2.720672525792892649e-01
2.720672525792892649e-01
2.720672525792892649e-01
2.869698127627053896e-01
2.869698127627053896e-01
2.667176155903706603e-01
2.667176155903706603e-01
2.667176155903706603e-01
2.877340466182651824e-01
2.877340466182651824e-01
3.060756591517004299e-01
3.060756591517004299e-01
3.060756591517004299e-01
2.835307604126862668e-01
2.835307604126862668e-01
3.141001146350783091e-01
3.141001146350783091e-01
3.141001146350783091e-01
3.236530378295758292e-01
3.236530378295758292e-01
3.205961024073366583e-01
3.205961024073366583e-01
3.205961024073366583e-01
3.263278563240351593e-01
3.263278563240351593e-01
3.076041268628200154e-01
3.076041268628200154e-01
3.076041268628200154e-01
3.098968284294994491e-01
3.098968284294994491e-01
3.148643484906381573e-01
3.148643484906381573e-01
3.148643484906381573e-01
3.228888039740160365e-01
3.228888039740160365e-01
3.194497516239969692e-01
3.194497516239969692e-01
3.194497516239969692e-01
3.515475735575085969e-01
3.515475735575085969e-01
3.435231180741306622e-01
3.435231180741306622e-01
3.435231180741306622e-01
3.458158196408100959e-01
3.458158196408100959e-01
3.354986625907527831e-01
3.354986625907527831e-01
3.354986625907527831e-01
3.496369889186091151e-01
3.496369889186091151e-01
3.354986625907527831e-01
3.354986625907527831e-01
3.354986625907527831e-01
3.565150936186473052e-01
3.565150936186473052e-01
3.591899121131066352e-01
3.591899121131066352e-01
3.591899121131066352e-01
3.549866259075277197e-01
3.549866259075277197e-01
3.752388230798624491e-01
3.752388230798624491e-01
3.752388230798624491e-01
3.798242262132212610e-01
3.798242262132212610e-01
3.511654566297287006e-01
3.511654566297287006e-01
3.511654566297287006e-01
3.870844478410393474e-01
3.870844478410393474e-01
3.767672907909820346e-01
3.767672907909820346e-01
3.714176538020634299e-01
3.714176538020634299e-01
3.714176538020634299e-01
3.729461215131830154e-01
3.729461215131830154e-01
3.614826136797860134e-01
3.614826136797860134e-01
3.614826136797860134e-01
3.931983186855177448e-01
3.931983186855177448e-01
3.656858998853649290e-01
3.656858998853649290e-01
3.656858998853649290e-01
3.687428353076040999e-01
3.687428353076040999e-01
3.748567061520825527e-01
3.748567061520825527e-01
3.748567061520825527e-01
3.851738632021398656e-01
3.851738632021398656e-01
3.951089033244172821e-01
3.951089033244172821e-01
3.951089033244172821e-01
3.989300726022163013e-01
3.989300726022163013e-01
4.027512418800152649e-01
4.027512418800152649e-01
4.027512418800152649e-01
3.805884600687810537e-01
3.805884600687810537e-01
3.790599923576614683e-01
3.790599923576614683e-01
3.790599923576614683e-01
4.061902942300343877e-01
4.061902942300343877e-01
3.847917462743599692e-01
3.847917462743599692e-01
3.847917462743599692e-01
4.012227741688956795e-01
4.012227741688956795e-01
3.882307986243790365e-01
3.882307986243790365e-01
3.882307986243790365e-01
4.019870080244554722e-01
4.019870080244554722e-01
3.928162017577378484e-01
3.928162017577378484e-01
3.928162017577378484e-01
3.939625525410775930e-01
3.939625525410775930e-01
3.931983186855177448e-01
3.931983186855177448e-01
3.931983186855177448e-01
3.920519679021780557e-01
3.920519679021780557e-01
3.855559801299197620e-01
3.855559801299197620e-01
3.855559801299197620e-01
3.878486816965991402e-01
3.878486816965991402e-01
3.993121895299961976e-01
3.993121895299961976e-01
3.993121895299961976e-01
3.836453954910202246e-01
3.836453954910202246e-01
3.909056171188383666e-01
3.909056171188383666e-01
3.909056171188383666e-01
3.824990447076805355e-01
3.824990447076805355e-01
3.836453954910202246e-01
3.836453954910202246e-01
3.836453954910202246e-01
3.855559801299197620e-01
3.855559801299197620e-01
3.958731371799770749e-01
3.958731371799770749e-01
3.958731371799770749e-01
4.027512418800152649e-01
4.027512418800152649e-01
3.844096293465800729e-01
3.844096293465800729e-01
3.844096293465800729e-01
4.054260603744745950e-01
4.054260603744745950e-01
3.779136415743217237e-01
3.779136415743217237e-01
3.779136415743217237e-01
4.081008788689338695e-01
4.081008788689338695e-01
4.004585403133358867e-01
4.004585403133358867e-01
4.004585403133358867e-01
3.779136415743217237e-01
3.779136415743217237e-01
3.928162017577378484e-01
3.928162017577378484e-01
3.928162017577378484e-01
3.782957585021016200e-01
3.782957585021016200e-01
4.027512418800152649e-01
4.027512418800152649e-01
4.027512418800152649e-01
3.859380970576996583e-01
3.859380970576996583e-01
3.782957585021016200e-01
3.782957585021016200e-01
3.782957585021016200e-01
3.748567061520825527e-01
3.748567061520825527e-01
3.733282384409629118e-01
3.733282384409629118e-01
3.733282384409629118e-01
3.817348108521207428e-01
3.817348108521207428e-01
3.809705769965609501e-01
3.809705769965609501e-01
3.809705769965609501e-01
3.672143675964845144e-01
3.672143675964845144e-01
3.958731371799770749e-01
3.958731371799770749e-01
3.958731371799770749e-01
3.668322506687046181e-01
3.668322506687046181e-01
3.675964845242644108e-01
3.675964845242644108e-01
3.675964845242644108e-01
3.565150936186473052e-01
3.565150936186473052e-01
3.588077951853266834e-01
3.588077951853266834e-01
3.588077951853266834e-01
3.538402751241879751e-01
3.538402751241879751e-01
3.767672907909820346e-01
3.767672907909820346e-01
3.767672907909820346e-01
3.584256782575467870e-01
3.584256782575467870e-01
3.691249522353840518e-01
3.691249522353840518e-01
3.691249522353840518e-01
3.416125334352311804e-01
3.416125334352311804e-01
3.614826136797860134e-01
3.614826136797860134e-01
3.614826136797860134e-01
3.633931983186854953e-01
3.633931983186854953e-01
3.595720290408865316e-01
3.595720290408865316e-01
3.595720290408865316e-01
3.546045089797478234e-01
3.546045089797478234e-01
3.404661826518914913e-01
3.404661826518914913e-01
3.404661826518914913e-01
3.167749331295376392e-01
3.167749331295376392e-01
3.389377149407718504e-01
3.389377149407718504e-01
3.389377149407718504e-01
3.213603362628964510e-01
3.213603362628964510e-01
3.114252961406190345e-01
3.114252961406190345e-01
3.114252961406190345e-01
3.072220099350401190e-01
3.072220099350401190e-01
3.305311425296140748e-01
3.305311425296140748e-01
3.305311425296140748e-01
3.301490256018341785e-01
3.301490256018341785e-01
2.995796713794421362e-01
2.995796713794421362e-01
2.995796713794421362e-01
3.102789453572793454e-01
3.102789453572793454e-01
3.034008406572410999e-01
3.034008406572410999e-01
3.034008406572410999e-01
3.202139854795567619e-01
3.202139854795567619e-01
2.862055789071455969e-01
2.862055789071455969e-01
2.862055789071455969e-01
3.098968284294994491e-01
3.098968284294994491e-01
3.064577760794803263e-01
3.064577760794803263e-01
3.064577760794803263e-01
2.999617883072220326e-01
2.999617883072220326e-01
3.072220099350401190e-01
3.072220099350401190e-01
3.072220099350401190e-01
3.064577760794803263e-01
3.064577760794803263e-01
2.877340466182651824e-01
2.877340466182651824e-01
2.747420710737485394e-01
2.747420710737485394e-01
2.747420710737485394e-01
2.724493695070691612e-01
2.724493695070691612e-01
3.007260221627818253e-01
3.007260221627818253e-01
3.007260221627818253e-01
2.877340466182651824e-01
2.877340466182651824e-01
2.877340466182651824e-01
2.877340466182651824e-01
2.877340466182651824e-01
2.892625143293847678e-01
2.892625143293847678e-01
2.934658005349636833e-01
2.934658005349636833e-01
2.934658005349636833e-01
2.881161635460450787e-01
2.881161635460450787e-01
2.808559419182269923e-01
2.808559419182269923e-01
2.808559419182269923e-01
2.877340466182651824e-01
2.877340466182651824e-01
2.606037447458922629e-01
2.606037447458922629e-01
2.606037447458922629e-01
2.583110431792128292e-01
2.583110431792128292e-01
2.648070309514711229e-01
2.648070309514711229e-01
2.648070309514711229e-01
2.842949942682460596e-01
2.842949942682460596e-01
2.690103171570500384e-01
2.690103171570500384e-01
2.690103171570500384e-01
2.873519296904852860e-01
2.873519296904852860e-01
2.839128773404661632e-01
2.839128773404661632e-01
2.839128773404661632e-01
2.804738249904470959e-01
2.804738249904470959e-01
2.800917080626671996e-01
2.800917080626671996e-01
2.800917080626671996e-01
2.525792892625143282e-01
2.525792892625143282e-01
2.762705387848681804e-01
2.762705387848681804e-01
2.762705387848681804e-01
2.571646923958731401e-01
2.571646923958731401e-01
2.789453572793274549e-01
2.789453572793274549e-01
2.789453572793274549e-01
2.502865876958349500e-01
2.502865876958349500e-01
2.434084829957967044e-01
2.434084829957967044e-01
2.434084829957967044e-01
2.705387848681696794e-01
2.705387848681696794e-01
2.613679786014520556e-01
2.613679786014520556e-01
2.613679786014520556e-01
2.369124952235384107e-01
2.369124952235384107e-01
2.430263660680168081e-01
2.430263660680168081e-01
2.430263660680168081e-01
2.483760030569354127e-01
2.483760030569354127e-01
2.330913259457393916e-01
2.330913259457393916e-01
2.330913259457393916e-01
2.590752770347726219e-01
2.590752770347726219e-01
2.304165074512800893e-01
2.304165074512800893e-01
2.304165074512800893e-01
2.556362246847535546e-01
2.556362246847535546e-01
2.544898739014138100e-01
2.544898739014138100e-01
2.544898739014138100e-01
2.369124952235384107e-01
2.369124952235384107e-01
2.598395108903324147e-01
2.598395108903324147e-01
2.598395108903324147e-01
2.369124952235384107e-01
2.369124952235384107e-01
2.311807413068398820e-01
2.311807413068398820e-01
2.311807413068398820e-01
2.288880397401604760e-01
2.288880397401604760e-01
2.327092090179594952e-01
2.327092090179594952e-01
2.327092090179594952e-01
2.288880397401604760e-01
2.288880397401604760e-01
2.384409629346579962e-01
2.384409629346579962e-01
2.384409629346579962e-01
2.483760030569354127e-01
2.483760030569354127e-01
2.277416889568207869e-01
2.277416889568207869e-01
2.277416889568207869e-01
2.116927779900649731e-01
2.116927779900649731e-01
2.105464272067252562e-01
2.105464272067252562e-01
2.105464272067252562e-01
2.285059228123805797e-01
2.285059228123805797e-01
2.074894917844860576e-01
2.074894917844860576e-01
2.074894917844860576e-01
2.036683225066870384e-01
2.036683225066870384e-01
2.269774551012609942e-01
2.269774551012609942e-01
2.269774551012609942e-01
2.269774551012609942e-01
2.269774551012609942e-01
2.193351165456629837e-01
2.193351165456629837e-01
2.193351165456629837e-01
1.994650363011081506e-01
1.994650363011081506e-01
2.116927779900649731e-01
2.116927779900649731e-01
2.116927779900649731e-01
2.235384027512418714e-01
2.235384027512418714e-01
2.124570118456247658e-01
2.124570118456247658e-01
2.124570118456247658e-01
2.059610240733664444e-01
2.059610240733664444e-01
1.979365685899885374e-01
1.979365685899885374e-01
1.979365685899885374e-01
1.922048146732900364e-01
1.922048146732900364e-01
1.895299961788307341e-01
1.895299961788307341e-01
1.895299961788307341e-01
2.178066488345433704e-01
2.178066488345433704e-01
2.021398547955674529e-01
2.021398547955674529e-01
2.021398547955674529e-01
2.006113870844478397e-01
2.006113870844478397e-01
1.868551776843714041e-01
1.868551776843714041e-01
1.868551776843714041e-01
1.849445930454719222e-01
1.849445930454719222e-01
1.971723347344287447e-01
1.971723347344287447e-01
1.971723347344287447e-01
1.818876576232326958e-01
1.818876576232326958e-01
1.830340084065724127e-01
1.830340084065724127e-01
1.830340084065724127e-01
2.055789071455865480e-01
2.055789071455865480e-01
2.078716087122659539e-01
2.078716087122659539e-01
2.078716087122659539e-01
1.853267099732518186e-01
1.853267099732518186e-01
1.994650363011081506e-01
1.994650363011081506e-01
1.994650363011081506e-01
1.994650363011081506e-01
1.994650363011081506e-01
1.746274359954146094e-01
1.746274359954146094e-01
1.746274359954146094e-01
1.952617500955292351e-01
1.952617500955292351e-01
1.719526175009552793e-01
1.719526175009552793e-01
1.719526175009552793e-01
1.734810852120748925e-01
1.734810852120748925e-01
1.761559037065341948e-01
1.761559037065341948e-01
1.761559037065341948e-01
1.929690485288498292e-01
1.929690485288498292e-01
1.891478792510508100e-01
1.891478792510508100e-01
1.964081008788689242e-01
1.964081008788689242e-01
1.964081008788689242e-01
1.654566297286969856e-01
1.654566297286969856e-01
1.623996943064577869e-01
1.623996943064577869e-01
1.623996943064577869e-01
1.887657623232709136e-01
1.887657623232709136e-01
1.891478792510508100e-01
1.891478792510508100e-01
1.891478792510508100e-01
1.574321742453190787e-01
1.574321742453190787e-01
1.608712265953381737e-01
1.608712265953381737e-01
1.608712265953381737e-01
1.673672143675964952e-01
1.673672143675964952e-01
1.612533435231180701e-01
1.612533435231180701e-01
1.612533435231180701e-01
1.837982422621322054e-01
1.837982422621322054e-01
1.623996943064577869e-01
1.623996943064577869e-01
1.623996943064577869e-01
1.677493312953763915e-01
1.677493312953763915e-01
1.520825372564004463e-01
1.520825372564004463e-01
1.520825372564004463e-01
1.543752388230798522e-01
1.543752388230798522e-01
1.501719526175009645e-01
1.501719526175009645e-01
1.501719526175009645e-01
1.799770729843332140e-01
1.799770729843332140e-01
1.559037065341994654e-01
1.559037065341994654e-01
1.559037065341994654e-01
1.753916698509744021e-01
1.753916698509744021e-01
1.753916698509744021e-01
1.753916698509744021e-01
1.753916698509744021e-01
1.578142911730989750e-01
1.578142911730989750e-01
1.448223156285823598e-01
1.448223156285823598e-01
1.448223156285823598e-01
1.715705005731753829e-01
1.715705005731753829e-01
1.459686664119220489e-01
1.459686664119220489e-01
1.459686664119220489e-01
1.532288880397401631e-01
1.532288880397401631e-01
1.616354604508979664e-01
1.616354604508979664e-01
1.616354604508979664e-01
1.505540695452808608e-01
1.505540695452808608e-01
1.528467711119602668e-01
1.528467711119602668e-01
1.528467711119602668e-01
1.616354604508979664e-01
1.616354604508979664e-01
1.570500573175391545e-01
1.570500573175391545e-01
1.570500573175391545e-01
1.643102789453572687e-01
1.643102789453572687e-01
1.581964081008788714e-01
1.581964081008788714e-01
1.581964081008788714e-01
1.425296140619029539e-01
1.425296140619029539e-01
1.463507833397019453e-01
1.463507833397019453e-01
1.463507833397019453e-01
1.348872755063049156e-01
1.348872755063049156e-01
1.578142911730989750e-01
1.578142911730989750e-01
1.578142911730989750e-01
1.566679403897592582e-01
1.566679403897592582e-01
1.570500573175391545e-01
1.570500573175391545e-01
1.570500573175391545e-01
1.310661062285059242e-01
1.310661062285059242e-01
1.245701184562476166e-01
1.245701184562476166e-01
1.245701184562476166e-01
1.314482231562858205e-01
1.314482231562858205e-01
1.379442109285441420e-01
1.379442109285441420e-01
1.379442109285441420e-01
1.260985861673672159e-01
1.260985861673672159e-01
1.257164692395873196e-01
1.257164692395873196e-01
1.257164692395873196e-01
1.459686664119220489e-01
1.459686664119220489e-01
1.471150171952617380e-01
1.471150171952617380e-01
1.471150171952617380e-01
1.253343523118074232e-01
1.253343523118074232e-01
1.387084447841039347e-01
1.387084447841039347e-01
1.387084447841039347e-01
1.299197554451662073e-01
1.299197554451662073e-01
1.272449369507069050e-01
1.272449369507069050e-01
1.272449369507069050e-01
1.215131830340084040e-01
1.215131830340084040e-01
1.188383645395491017e-01
1.188383645395491017e-01
1.188383645395491017e-01
1.180741306839892951e-01
1.180741306839892951e-01
1.184562476117692054e-01
1.184562476117692054e-01
1.184562476117692054e-01
1.249522353840275130e-01
1.249522353840275130e-01
1.150171952617500964e-01
1.150171952617500964e-01
1.150171952617500964e-01
1.230416507451280034e-01
1.230416507451280034e-01
1.444401987008024357e-01
1.444401987008024357e-01
1.444401987008024357e-01
1.150171952617500964e-01
1.150171952617500964e-01
1.176920137562093988e-01
1.176920137562093988e-01
1.176920137562093988e-01
1.134887275506304971e-01
1.134887275506304971e-01
1.303018723729461315e-01
1.303018723729461315e-01
1.303018723729461315e-01
1.345051585785250192e-01
1.345051585785250192e-01
1.436759648452426430e-01
1.436759648452426430e-01
1.436759648452426430e-01
1.413832632785632371e-01
1.413832632785632371e-01
1.253343523118074232e-01
1.253343523118074232e-01
1.253343523118074232e-01
1.375620940007642456e-01
1.375620940007642456e-01
1.306839893007260278e-01
1.306839893007260278e-01
1.306839893007260278e-01
1.165456629728696958e-01
1.165456629728696958e-01
1.413832632785632371e-01
1.413832632785632371e-01
1.413832632785632371e-01
1.180741306839892951e-01
1.180741306839892951e-01
1.260985861673672159e-01
1.260985861673672159e-01
1.260985861673672159e-01
1.100496752006113882e-01
1.100496752006113882e-01
1.367978601452044252e-01
1.367978601452044252e-01
1.367978601452044252e-01
1.127244936950706905e-01
1.127244936950706905e-01
1.096675582728314918e-01
1.096675582728314918e-01
1.096675582728314918e-01
1.085212074894917889e-01
1.085212074894917889e-01
1.089033244172716852e-01
1.089033244172716852e-01
1.089033244172716852e-01
1.123423767672907941e-01
1.123423767672907941e-01
1.108139090561711948e-01
1.108139090561711948e-01
1.108139090561711948e-01
1.402369124952235480e-01
1.402369124952235480e-01
1.100496752006113882e-01
1.100496752006113882e-01
1.100496752006113882e-01
1.192204814673289981e-01
1.192204814673289981e-01
1.253343523118074232e-01
1.253343523118074232e-01
1.444401987008024357e-01
1.444401987008024357e-01
1.444401987008024357e-01
1.432938479174627466e-01
1.432938479174627466e-01
1.459686664119220489e-01
1.459686664119220489e-01
1.459686664119220489e-01
1.410011463507833407e-01
1.410011463507833407e-01
1.306839893007260278e-01
1.306839893007260278e-01
1.306839893007260278e-01
1.238058846006878100e-01
1.238058846006878100e-01
1.452044325563622562e-01
1.452044325563622562e-01
1.452044325563622562e-01
1.601069927397783810e-01
1.601069927397783810e-01
1.360336262896446324e-01
1.360336262896446324e-01
1.360336262896446324e-01
1.490256018341612476e-01
1.490256018341612476e-01
1.597248758119984846e-01
1.597248758119984846e-01
1.597248758119984846e-01
1.536110049675200595e-01
1.536110049675200595e-01
1.635460450897974760e-01
1.635460450897974760e-01
1.635460450897974760e-01
1.685135651509361843e-01
1.685135651509361843e-01
1.910584638899503196e-01
1.910584638899503196e-01
1.910584638899503196e-01
1.895299961788307341e-01
1.895299961788307341e-01
1.906763469621704232e-01
1.906763469621704232e-01
1.906763469621704232e-01
2.021398547955674529e-01
2.021398547955674529e-01
2.128391287734046622e-01
2.128391287734046622e-01
2.128391287734046622e-01
2.101643102789453599e-01
2.101643102789453599e-01
2.250668704623614846e-01
2.250668704623614846e-01
2.250668704623614846e-01
2.353840275124187975e-01
2.353840275124187975e-01
2.327092090179594952e-01
2.327092090179594952e-01
2.327092090179594952e-01
2.674818494459304530e-01
2.674818494459304530e-01
2.766526557126480768e-01
2.766526557126480768e-01
2.766526557126480768e-01
2.850592281238059078e-01
2.850592281238059078e-01
2.865876958349254933e-01
2.865876958349254933e-01
2.865876958349254933e-01
2.705387848681696794e-01
2.705387848681696794e-01
2.946121513183034279e-01
2.946121513183034279e-01
2.946121513183034279e-01
3.045471914405808445e-01
3.045471914405808445e-01
3.064577760794803263e-01
3.064577760794803263e-01
3.064577760794803263e-01
2.942300343905234761e-01
2.942300343905234761e-01
2.976690867405425989e-01
2.976690867405425989e-01
2.976690867405425989e-01
3.087504776461597045e-01
3.087504776461597045e-01
3.060756591517004299e-01
3.060756591517004299e-01
3.060756591517004299e-01
3.118074130683989309e-01
3.118074130683989309e-01
3.183034008406572246e-01
3.183034008406572246e-01
3.183034008406572246e-01
3.488727550630492669e-01
3.488727550630492669e-01
3.534581581964080788e-01
3.534581581964080788e-01
3.534581581964080788e-01
3.435231180741306622e-01
3.435231180741306622e-01
3.595720290408865316e-01
3.595720290408865316e-01
3.595720290408865316e-01
3.481085212074894741e-01
3.481085212074894741e-01
3.397019487963316986e-01
3.397019487963316986e-01
3.397019487963316986e-01
3.450515857852503032e-01
3.450515857852503032e-01
3.461979365685899923e-01
3.461979365685899923e-01
3.461979365685899923e-01
3.584256782575467870e-01
3.584256782575467870e-01
3.779136415743217237e-01
3.779136415743217237e-01
3.779136415743217237e-01
3.714176538020634299e-01
3.714176538020634299e-01
3.591899121131066352e-01
3.591899121131066352e-01
3.591899121131066352e-01
3.698891860909438445e-01
3.698891860909438445e-01
3.756209400076423455e-01
3.756209400076423455e-01
3.756209400076423455e-01
3.855559801299197620e-01
3.855559801299197620e-01
3.622468475353458062e-01
3.622468475353458062e-01
3.622468475353458062e-01
3.782957585021016200e-01
3.782957585021016200e-01
3.633931983186854953e-01
3.633931983186854953e-01
3.633931983186854953e-01
3.798242262132212610e-01
3.798242262132212610e-01
3.717997707298433263e-01
3.717997707298433263e-01
3.717997707298433263e-01
3.717997707298433263e-01
3.717997707298433263e-01
3.714176538020634299e-01
3.714176538020634299e-01
3.714176538020634299e-01
3.855559801299197620e-01
3.855559801299197620e-01
3.790599923576614683e-01
3.790599923576614683e-01
3.790599923576614683e-01
4.012227741688956795e-01
4.012227741688956795e-01
3.878486816965991402e-01
3.878486816965991402e-01
3.878486816965991402e-01
4.061902942300343877e-01
4.061902942300343877e-01
4.023691249522353686e-01
4.023691249522353686e-01
4.023691249522353686e-01
4.065724111578142841e-01
4.065724111578142841e-01
4.103935804356133032e-01
4.103935804356133032e-01
4.103935804356133032e-01
3.847917462743599692e-01
3.847917462743599692e-01
4.069545280855941805e-01
4.069545280855941805e-01
4.069545280855941805e-01
4.161253343523118042e-01
4.161253343523118042e-01
4.188001528467711343e-01
4.188001528467711343e-01
4.188001528467711343e-01
3.897592663354986775e-01
3.897592663354986775e-01
4.027512418800152649e-01
4.027512418800152649e-01
4.027512418800152649e-01
4.084829957967138214e-01
4.084829957967138214e-01
4.184180359189912379e-01
4.184180359189912379e-01
4.184180359189912379e-01
4.065724111578142841e-01
4.065724111578142841e-01
3.905235001910584702e-01
3.905235001910584702e-01
3.905235001910584702e-01
3.912877340466182630e-01
3.912877340466182630e-01
4.203286205578907198e-01
4.203286205578907198e-01
4.203286205578907198e-01
4.157432174245319079e-01
4.157432174245319079e-01
3.916698509743981593e-01
3.916698509743981593e-01
4.038975926633550095e-01
4.038975926633550095e-01
4.038975926633550095e-01
3.928162017577378484e-01
3.928162017577378484e-01
3.882307986243790365e-01
3.882307986243790365e-01
3.882307986243790365e-01
3.912877340466182630e-01
3.912877340466182630e-01
4.138326327856324260e-01
4.138326327856324260e-01
4.138326327856324260e-01
3.901413832632785739e-01
3.901413832632785739e-01
4.172716851356514933e-01
4.172716851356514933e-01
4.172716851356514933e-01
4.161253343523118042e-01
4.161253343523118042e-01
4.092472296522736142e-01
4.092472296522736142e-01
4.092472296522736142e-01
4.088651127244937178e-01
4.088651127244937178e-01
4.126862820022926814e-01
4.126862820022926814e-01
4.126862820022926814e-01
3.985479556744364049e-01
3.985479556744364049e-01
3.931983186855177448e-01
3.931983186855177448e-01
3.931983186855177448e-01
3.874665647688192438e-01
3.874665647688192438e-01
3.909056171188383666e-01
3.909056171188383666e-01
3.909056171188383666e-01
4.096293465800535105e-01
4.096293465800535105e-01
3.836453954910202246e-01
3.836453954910202246e-01
3.836453954910202246e-01
3.954910202521971785e-01
3.954910202521971785e-01
3.970194879633167639e-01
3.970194879633167639e-01
3.970194879633167639e-01
4.035154757355751132e-01
4.035154757355751132e-01
3.977837218188765567e-01
3.977837218188765567e-01
3.977837218188765567e-01
3.817348108521207428e-01
3.817348108521207428e-01
3.740924722965227600e-01
3.740924722965227600e-01
3.740924722965227600e-01
3.760030569354222418e-01
3.760030569354222418e-01
3.870844478410393474e-01
3.870844478410393474e-01
3.870844478410393474e-01
3.928162017577378484e-01
3.928162017577378484e-01
3.595720290408865316e-01
3.595720290408865316e-01
3.595720290408865316e-01
3.867023309132594511e-01
3.867023309132594511e-01
3.733282384409629118e-01
3.733282384409629118e-01
3.733282384409629118e-01
3.824990447076805355e-01
3.824990447076805355e-01
3.488727550630492669e-01
3.488727550630492669e-01
3.488727550630492669e-01
3.683607183798242035e-01
3.683607183798242035e-01
3.633931983186854953e-01
3.633931983186854953e-01
3.633931983186854953e-01
3.702713030187237409e-01
3.702713030187237409e-01
3.435231180741306622e-01
3.435231180741306622e-01
3.435231180741306622e-01
3.339701948796331421e-01
3.339701948796331421e-01
3.427588842185708695e-01
3.427588842185708695e-01
3.427588842185708695e-01
3.370271303018723685e-01
3.370271303018723685e-01
3.492548719908292187e-01
3.492548719908292187e-01
3.492548719908292187e-01
3.362628964463125758e-01
3.362628964463125758e-01
3.232709209017959329e-01
3.232709209017959329e-01
3.232709209017959329e-01
3.194497516239969692e-01
3.194497516239969692e-01
3.446694688574704069e-01
3.446694688574704069e-01
3.446694688574704069e-01
3.106610622850592418e-01
3.106610622850592418e-01
3.064577760794803263e-01
3.064577760794803263e-01
3.064577760794803263e-01
3.267099732518150557e-01
3.267099732518150557e-01
3.347344287351929903e-01
3.347344287351929903e-01
3.347344287351929903e-01
3.293847917462743857e-01
3.293847917462743857e-01
3.167749331295376392e-01
3.167749331295376392e-01
3.167749331295376392e-01
3.125716469239587236e-01
3.125716469239587236e-01
2.934658005349636833e-01
2.934658005349636833e-01
2.934658005349636833e-01
3.190676346962170173e-01
3.190676346962170173e-01
2.988154375238822880e-01
2.988154375238822880e-01
2.988154375238822880e-01
2.873519296904852860e-01
2.873519296904852860e-01
2.858234619793657005e-01
2.858234619793657005e-01
2.858234619793657005e-01
2.969048528849828061e-01
2.969048528849828061e-01
2.919373328238440979e-01
2.919373328238440979e-01
2.919373328238440979e-01
3.083683607183798081e-01
3.083683607183798081e-01
3.018723729461215144e-01
3.018723729461215144e-01
3.018723729461215144e-01
3.068398930072602226e-01
3.068398930072602226e-01
2.739778372181887467e-01
2.739778372181887467e-01
2.739778372181887467e-01
2.716851356515093685e-01
2.716851356515093685e-01
3.003439052350019289e-01
3.003439052350019289e-01
3.003439052350019289e-01
2.781811234237676622e-01
2.781811234237676622e-01
2.972869698127627025e-01
2.972869698127627025e-01
2.972869698127627025e-01
2.984333205961023916e-01
2.984333205961023916e-01
2.674818494459304530e-01
2.674818494459304530e-01
2.674818494459304530e-01
2.842949942682460596e-01
2.842949942682460596e-01
2.693924340848299348e-01
2.693924340848299348e-01
2.693924340848299348e-01
2.682460833014902457e-01
2.682460833014902457e-01
2.686282002292701421e-01
2.686282002292701421e-01
2.686282002292701421e-01
2.904088651127245124e-01
2.904088651127245124e-01
2.674818494459304530e-01
2.674818494459304530e-01
2.674818494459304530e-01
2.850592281238059078e-01
2.850592281238059078e-01
2.690103171570500384e-01
2.690103171570500384e-01
2.690103171570500384e-01
2.816201757737867850e-01
2.816201757737867850e-01
2.602216278181123665e-01
2.602216278181123665e-01
2.602216278181123665e-01
2.812380588460068886e-01
2.812380588460068886e-01
2.831486434849063705e-01
2.831486434849063705e-01
2.831486434849063705e-01
2.797095911348873032e-01
2.797095911348873032e-01
2.755063049293083877e-01
2.755063049293083877e-01
2.804738249904470959e-01
2.804738249904470959e-01
2.804738249904470959e-01
2.670997325181505566e-01
2.670997325181505566e-01
2.468475353458158272e-01
2.468475353458158272e-01
2.468475353458158272e-01
2.499044707680550259e-01
2.499044707680550259e-01
2.457011845624761104e-01
2.457011845624761104e-01
2.457011845624761104e-01
2.464654184180359309e-01
2.464654184180359309e-01
2.541077569736339137e-01
2.541077569736339137e-01
2.541077569736339137e-01
2.640427970959113302e-01
2.640427970959113302e-01
2.372946121513183071e-01
2.372946121513183071e-01
2.372946121513183071e-01
2.564004585403133474e-01
2.564004585403133474e-01
2.617500955292319520e-01
2.617500955292319520e-01
2.617500955292319520e-01
2.533435231180741209e-01
2.533435231180741209e-01
2.560183416125334510e-01
2.560183416125334510e-01
2.560183416125334510e-01
2.502865876958349500e-01
2.502865876958349500e-01
2.392051967902178167e-01
2.392051967902178167e-01
2.392051967902178167e-01
2.556362246847535546e-01
2.556362246847535546e-01
2.277416889568207869e-01
2.277416889568207869e-01
2.277416889568207869e-01
2.361482613679785902e-01
2.361482613679785902e-01
2.361482613679785902e-01
2.361482613679785902e-01
2.361482613679785902e-01
2.556362246847535546e-01
2.556362246847535546e-01
2.426442491402369117e-01
2.426442491402369117e-01
2.426442491402369117e-01
2.273595720290408906e-01
2.273595720290408906e-01
2.239205196790217678e-01
2.239205196790217678e-01
2.239205196790217678e-01
2.231562858234619751e-01
2.231562858234619751e-01
2.468475353458158272e-01
2.468475353458158272e-01
2.468475353458158272e-01
2.434084829957967044e-01
2.434084829957967044e-01
2.212457011845624655e-01
2.212457011845624655e-01
2.212457011845624655e-01
2.422621322124570153e-01
2.422621322124570153e-01
2.323270920901795988e-01
2.323270920901795988e-01
2.323270920901795988e-01
2.094000764233855671e-01
2.094000764233855671e-01
2.197172334734428800e-01
2.197172334734428800e-01
2.197172334734428800e-01
2.116927779900649731e-01
2.116927779900649731e-01
2.353840275124187975e-01
2.353840275124187975e-01
2.353840275124187975e-01
2.067252579289262648e-01
2.067252579289262648e-01
2.090179594956056430e-01
2.090179594956056430e-01
2.090179594956056430e-01
2.246847535345815883e-01
2.246847535345815883e-01
2.017577378677875566e-01
2.017577378677875566e-01
2.017577378677875566e-01
2.292701566679404002e-01
2.292701566679404002e-01
2.002292701566679434e-01
2.002292701566679434e-01
2.002292701566679434e-01
1.967902178066488483e-01
1.967902178066488483e-01
2.239205196790217678e-01
2.239205196790217678e-01
2.239205196790217678e-01
2.013756209400076325e-01
2.013756209400076325e-01
1.998471532288880470e-01
1.998471532288880470e-01
1.998471532288880470e-01
2.082537256400458503e-01
2.082537256400458503e-01
1.887657623232709136e-01
1.887657623232709136e-01
1.887657623232709136e-01
1.971723347344287447e-01
1.971723347344287447e-01
1.899121131066106305e-01
1.899121131066106305e-01
1.899121131066106305e-01
2.013756209400076325e-01
2.013756209400076325e-01
2.101643102789453599e-01
2.101643102789453599e-01
2.101643102789453599e-01
1.914405808177302160e-01
1.914405808177302160e-01
1.876194115399312246e-01
1.876194115399312246e-01
1.876194115399312246e-01
2.040504394344669348e-01
2.040504394344669348e-01
2.051967902178066516e-01
2.051967902178066516e-01
2.051967902178066516e-01
2.094000764233855671e-01
2.094000764233855671e-01
1.803591899121131104e-01
1.803591899121131104e-01
1.803591899121131104e-01
1.914405808177302160e-01
1.914405808177302160e-01
1.761559037065341948e-01
1.761559037065341948e-01
1.761559037065341948e-01
1.750095529231945057e-01
1.750095529231945057e-01
1.761559037065341948e-01
1.761559037065341948e-01
1.761559037065341948e-01
1.727168513565150998e-01
1.727168513565150998e-01
1.853267099732518186e-01
1.853267099732518186e-01
1.853267099732518186e-01
1.937332823844096219e-01
1.937332823844096219e-01
1.730989682842949962e-01
1.730989682842949962e-01
1.730989682842949962e-01
1.941153993121895183e-01
1.941153993121895183e-01
1.711883836453954866e-01
1.711883836453954866e-01
1.711883836453954866e-01
1.834161253343523090e-01
1.834161253343523090e-01
1.872372946121513282e-01
1.872372946121513282e-01
1.872372946121513282e-01
1.692777990064959770e-01
1.692777990064959770e-01
1.769201375620939876e-01
1.769201375620939876e-01
1.769201375620939876e-01
1.765380206343140912e-01
1.765380206343140912e-01
1.807413068398930067e-01
1.807413068398930067e-01
1.807413068398930067e-01
1.837982422621322054e-01
1.837982422621322054e-01
1.612533435231180701e-01
1.612533435231180701e-01
1.612533435231180701e-01
1.899121131066106305e-01
1.899121131066106305e-01
1.696599159342759011e-01
1.696599159342759011e-01
1.696599159342759011e-01
1.685135651509361843e-01
1.685135651509361843e-01
1.543752388230798522e-01
1.543752388230798522e-01
1.543752388230798522e-01
1.857088269010317150e-01
1.857088269010317150e-01
1.868551776843714041e-01
1.868551776843714041e-01
1.868551776843714041e-01
1.845624761176920259e-01
1.845624761176920259e-01
1.517004203286205499e-01
1.517004203286205499e-01
1.517004203286205499e-01
1.662208635842567783e-01
1.662208635842567783e-01
1.631639281620175796e-01
1.631639281620175796e-01
1.807413068398930067e-01
1.807413068398930067e-01
1.807413068398930067e-01
1.566679403897592582e-01
1.566679403897592582e-01
1.551394726786396727e-01
1.551394726786396727e-01
1.551394726786396727e-01
1.559037065341994654e-01
1.559037065341994654e-01
1.658387466564768820e-01
1.658387466564768820e-01
1.658387466564768820e-01
1.601069927397783810e-01
1.601069927397783810e-01
1.673672143675964952e-01
1.673672143675964952e-01
1.673672143675964952e-01
1.459686664119220489e-01
1.459686664119220489e-01
1.467329002674818417e-01
1.467329002674818417e-01
1.467329002674818417e-01
1.604891096675582773e-01
1.604891096675582773e-01
1.425296140619029539e-01
1.425296140619029539e-01
1.425296140619029539e-01
1.566679403897592582e-01
1.566679403897592582e-01
1.417653802063431334e-01
1.417653802063431334e-01
1.417653802063431334e-01
1.639281620175773724e-01
1.639281620175773724e-01
1.406190294230034443e-01
1.406190294230034443e-01
1.406190294230034443e-01
1.387084447841039347e-01
1.387084447841039347e-01
1.601069927397783810e-01
1.601069927397783810e-01
1.601069927397783810e-01
1.463507833397019453e-01
1.463507833397019453e-01
1.440580817730225394e-01
1.440580817730225394e-01
1.440580817730225394e-01
1.608712265953381737e-01
1.608712265953381737e-01
1.379442109285441420e-01
1.379442109285441420e-01
1.379442109285441420e-01
1.410011463507833407e-01
1.410011463507833407e-01
1.318303400840657169e-01
1.318303400840657169e-01
1.318303400840657169e-01
1.581964081008788714e-01
1.581964081008788714e-01
1.322124570118456133e-01
1.322124570118456133e-01
1.322124570118456133e-01
1.566679403897592582e-01
1.566679403897592582e-01
1.310661062285059242e-01
1.310661062285059242e-01
1.310661062285059242e-01
1.356515093618647361e-01
1.356515093618647361e-01
1.283912877340466219e-01
1.283912877340466219e-01
1.283912877340466219e-01
1.505540695452808608e-01
1.505540695452808608e-01
1.280091708062667255e-01
1.280091708062667255e-01
1.280091708062667255e-01
1.410011463507833407e-01
1.410011463507833407e-01
1.234237676729079136e-01
1.234237676729079136e-01
1.234237676729079136e-01
1.497898356897210681e-01
1.497898356897210681e-01
1.264807030951471123e-01
1.264807030951471123e-01
1.264807030951471123e-01
1.260985861673672159e-01
1.260985861673672159e-01
1.333588077951853301e-01
1.333588077951853301e-01
1.333588077951853301e-01
1.379442109285441420e-01
1.379442109285441420e-01
1.295376385173863110e-01
1.295376385173863110e-01
1.295376385173863110e-01
1.360336262896446324e-01
1.360336262896446324e-01
1.436759648452426430e-01
1.436759648452426430e-01
1.436759648452426430e-01
1.429117309896828503e-01
1.429117309896828503e-01
1.341230416507451229e-01
1.341230416507451229e-01
1.341230416507451229e-01
1.299197554451662073e-01
1.299197554451662073e-01
1.299197554451662073e-01
1.299197554451662073e-01
1.299197554451662073e-01
1.333588077951853301e-01
1.333588077951853301e-01
1.192204814673289981e-01
1.192204814673289981e-01
1.192204814673289981e-01
1.379442109285441420e-01
1.379442109285441420e-01
1.306839893007260278e-01
1.306839893007260278e-01
1.306839893007260278e-01
1.268628200229270087e-01
1.268628200229270087e-01
1.497898356897210681e-01
1.497898356897210681e-01
1.497898356897210681e-01
1.474971341230416622e-01
1.474971341230416622e-01
1.482613679786014549e-01
1.482613679786014549e-01
1.482613679786014549e-01
1.432938479174627466e-01
1.432938479174627466e-01
1.429117309896828503e-01
1.429117309896828503e-01
1.429117309896828503e-01
1.371799770729843215e-01
1.371799770729843215e-01
1.505540695452808608e-01
1.505540695452808608e-01
1.505540695452808608e-01
1.314482231562858205e-01
1.314482231562858205e-01
1.578142911730989750e-01
1.578142911730989750e-01
1.578142911730989750e-01
1.650745128009170892e-01
1.650745128009170892e-01
1.597248758119984846e-01
1.597248758119984846e-01
1.597248758119984846e-01
1.436759648452426430e-01
1.436759648452426430e-01
1.463507833397019453e-01
1.463507833397019453e-01
1.463507833397019453e-01
1.700420328620557975e-01
1.700420328620557975e-01
1.849445930454719222e-01
1.849445930454719222e-01
1.849445930454719222e-01
1.941153993121895183e-01
1.941153993121895183e-01
1.998471532288880470e-01
1.998471532288880470e-01
1.998471532288880470e-01
1.841803591899121018e-01
1.841803591899121018e-01
1.902942300343905269e-01
1.902942300343905269e-01
1.902942300343905269e-01
1.987008024455483302e-01
1.987008024455483302e-01
2.227741688956820787e-01
2.227741688956820787e-01
2.227741688956820787e-01
2.353840275124187975e-01
2.353840275124187975e-01
2.200993504012227764e-01
2.200993504012227764e-01
2.200993504012227764e-01
2.315628582346198061e-01
2.315628582346198061e-01
2.342376767290791084e-01
2.342376767290791084e-01
2.342376767290791084e-01
2.575468093236530365e-01
2.575468093236530365e-01
2.506687046236148464e-01
2.506687046236148464e-01
2.506687046236148464e-01
2.529614061902942246e-01
2.529614061902942246e-01
2.758884218570882840e-01
2.758884218570882840e-01
2.758884218570882840e-01
2.766526557126480768e-01
2.766526557126480768e-01
2.812380588460068886e-01
2.812380588460068886e-01
2.820022927015666814e-01
2.820022927015666814e-01
2.820022927015666814e-01
3.137179977072984127e-01
3.137179977072984127e-01
3.068398930072602226e-01
3.068398930072602226e-01
3.068398930072602226e-01
3.190676346962170173e-01
3.190676346962170173e-01
3.083683607183798081e-01
3.083683607183798081e-01
3.083683607183798081e-01
3.362628964463125758e-01
3.362628964463125758e-01
3.332059610240733494e-01
3.332059610240733494e-01
3.332059610240733494e-01
3.183034008406572246e-01
3.183034008406572246e-01
3.504012227741689078e-01
3.504012227741689078e-01
3.504012227741689078e-01
3.263278563240351593e-01
3.263278563240351593e-01
3.312953763851738676e-01
3.312953763851738676e-01
3.312953763851738676e-01
3.633931983186854953e-01
3.633931983186854953e-01
3.595720290408865316e-01
3.595720290408865316e-01
3.595720290408865316e-01
3.389377149407718504e-01
3.389377149407718504e-01
3.687428353076040999e-01
3.687428353076040999e-01
3.687428353076040999e-01
3.740924722965227600e-01
3.740924722965227600e-01
3.675964845242644108e-01
3.675964845242644108e-01
3.675964845242644108e-01
3.553687428353076161e-01
3.553687428353076161e-01
3.526939243408482860e-01
3.526939243408482860e-01
3.526939243408482860e-01
3.591899121131066352e-01
3.591899121131066352e-01
3.588077951853266834e-01
3.588077951853266834e-01
3.588077951853266834e-01
3.603362628964463243e-01
3.603362628964463243e-01
3.763851738632021382e-01
3.763851738632021382e-01
