1.681314482231562879e-01
1.761559037065341948e-01
1.761559037065341948e-01
1.822697745510126199e-01
1.822697745510126199e-01
1.822697745510126199e-01
1.857088269010317150e-01
1.857088269010317150e-01
1.650745128009170892e-01
1.650745128009170892e-01
1.650745128009170892e-01
1.773022544898739117e-01
1.773022544898739117e-01
1.769201375620939876e-01
1.769201375620939876e-01
1.769201375620939876e-01
1.799770729843332140e-01
1.799770729843332140e-01
1.623996943064577869e-01
1.623996943064577869e-01
1.623996943064577869e-01
1.669850974398165711e-01
1.669850974398165711e-01
1.818876576232326958e-01
1.818876576232326958e-01
1.818876576232326958e-01
1.773022544898739117e-01
1.773022544898739117e-01
1.727168513565150998e-01
1.727168513565150998e-01
1.727168513565150998e-01
1.692777990064959770e-01
1.692777990064959770e-01
1.750095529231945057e-01
1.750095529231945057e-01
1.750095529231945057e-01
1.788307222009934971e-01
1.788307222009934971e-01
1.627818112342376833e-01
1.627818112342376833e-01
1.627818112342376833e-01
1.795949560565533176e-01
1.795949560565533176e-01
1.815055406954527994e-01
1.815055406954527994e-01
1.815055406954527994e-01
1.788307222009934971e-01
1.788307222009934971e-01
1.788307222009934971e-01
1.788307222009934971e-01
1.788307222009934971e-01
1.750095529231945057e-01
1.750095529231945057e-01
1.673672143675964952e-01
1.673672143675964952e-01
1.673672143675964952e-01
1.681314482231562879e-01
1.681314482231562879e-01
1.696599159342759011e-01
1.696599159342759011e-01
1.696599159342759011e-01
1.639281620175773724e-01
1.639281620175773724e-01
1.589606419564386641e-01
1.589606419564386641e-01
1.589606419564386641e-01
1.750095529231945057e-01
1.750095529231945057e-01
1.616354604508979664e-01
1.616354604508979664e-01
1.616354604508979664e-01
1.574321742453190787e-01
1.574321742453190787e-01
1.604891096675582773e-01
1.604891096675582773e-01
1.604891096675582773e-01
1.685135651509361843e-01
1.685135651509361843e-01
1.612533435231180701e-01
1.612533435231180701e-01
1.612533435231180701e-01
1.589606419564386641e-01
1.589606419564386641e-01
1.627818112342376833e-01
1.627818112342376833e-01
1.627818112342376833e-01
1.711883836453954866e-01
1.711883836453954866e-01
1.589606419564386641e-01
1.589606419564386641e-01
1.589606419564386641e-01
1.570500573175391545e-01
1.570500573175391545e-01
1.715705005731753829e-01
1.715705005731753829e-01
1.715705005731753829e-01
1.593427588842185605e-01
1.593427588842185605e-01
1.681314482231562879e-01
1.681314482231562879e-01
1.681314482231562879e-01
1.627818112342376833e-01
1.627818112342376833e-01
1.666029805120366747e-01
1.666029805120366747e-01
1.666029805120366747e-01
1.616354604508979664e-01
1.616354604508979664e-01
1.669850974398165711e-01
1.669850974398165711e-01
1.669850974398165711e-01
1.574321742453190787e-01
1.574321742453190787e-01
1.555215896064195691e-01
1.555215896064195691e-01
1.555215896064195691e-01
1.688956820787160806e-01
1.688956820787160806e-01
1.631639281620175796e-01
1.631639281620175796e-01
1.631639281620175796e-01
1.639281620175773724e-01
1.639281620175773724e-01
1.543752388230798522e-01
1.543752388230798522e-01
1.543752388230798522e-01
1.666029805120366747e-01
1.666029805120366747e-01
1.570500573175391545e-01
1.570500573175391545e-01
1.570500573175391545e-01
1.658387466564768820e-01
1.658387466564768820e-01
1.746274359954146094e-01
1.746274359954146094e-01
1.746274359954146094e-01
1.681314482231562879e-01
1.681314482231562879e-01
1.589606419564386641e-01
1.589606419564386641e-01
1.589606419564386641e-01
1.543752388230798522e-01
1.543752388230798522e-01
1.547573557508597764e-01
1.547573557508597764e-01
1.547573557508597764e-01
1.497898356897210681e-01
1.497898356897210681e-01
1.559037065341994654e-01
1.559037065341994654e-01
1.559037065341994654e-01
1.750095529231945057e-01
1.750095529231945057e-01
1.711883836453954866e-01
1.711883836453954866e-01
1.711883836453954866e-01
1.727168513565150998e-01
1.727168513565150998e-01
1.685135651509361843e-01
1.685135651509361843e-01
1.685135651509361843e-01
1.597248758119984846e-01
1.597248758119984846e-01
1.528467711119602668e-01
1.528467711119602668e-01
1.528467711119602668e-01
1.738632021398547889e-01
1.738632021398547889e-01
1.555215896064195691e-01
1.555215896064195691e-01
1.555215896064195691e-01
1.517004203286205499e-01
1.517004203286205499e-01
1.497898356897210681e-01
1.497898356897210681e-01
1.497898356897210681e-01
1.673672143675964952e-01
1.673672143675964952e-01
1.673672143675964952e-01
1.673672143675964952e-01
1.673672143675964952e-01
1.524646541841803704e-01
1.524646541841803704e-01
1.635460450897974760e-01
1.635460450897974760e-01
1.635460450897974760e-01
1.578142911730989750e-01
1.578142911730989750e-01
1.608712265953381737e-01
1.608712265953381737e-01
1.608712265953381737e-01
1.551394726786396727e-01
1.551394726786396727e-01
1.639281620175773724e-01
1.639281620175773724e-01
1.639281620175773724e-01
1.559037065341994654e-01
1.559037065341994654e-01
1.612533435231180701e-01
1.612533435231180701e-01
1.612533435231180701e-01
1.635460450897974760e-01
1.635460450897974760e-01
1.494077187619411440e-01
1.494077187619411440e-01
1.494077187619411440e-01
1.536110049675200595e-01
1.536110049675200595e-01
1.673672143675964952e-01
1.673672143675964952e-01
1.463507833397019453e-01
1.463507833397019453e-01
1.463507833397019453e-01
1.478792510508215585e-01
1.478792510508215585e-01
1.635460450897974760e-01
1.635460450897974760e-01
1.635460450897974760e-01
1.574321742453190787e-01
1.574321742453190787e-01
1.547573557508597764e-01
1.547573557508597764e-01
1.547573557508597764e-01
1.570500573175391545e-01
1.570500573175391545e-01
1.452044325563622562e-01
1.452044325563622562e-01
1.452044325563622562e-01
1.654566297286969856e-01
1.654566297286969856e-01
1.639281620175773724e-01
1.639281620175773724e-01
1.639281620175773724e-01
1.490256018341612476e-01
1.490256018341612476e-01
1.532288880397401631e-01
1.532288880397401631e-01
1.532288880397401631e-01
1.578142911730989750e-01
1.578142911730989750e-01
1.623996943064577869e-01
1.623996943064577869e-01
1.623996943064577869e-01
1.650745128009170892e-01
1.650745128009170892e-01
1.543752388230798522e-01
1.543752388230798522e-01
1.543752388230798522e-01
1.673672143675964952e-01
1.673672143675964952e-01
1.627818112342376833e-01
1.627818112342376833e-01
1.627818112342376833e-01
1.623996943064577869e-01
1.623996943064577869e-01
1.520825372564004463e-01
1.520825372564004463e-01
1.520825372564004463e-01
1.662208635842567783e-01
1.662208635842567783e-01
1.715705005731753829e-01
1.715705005731753829e-01
1.715705005731753829e-01
1.730989682842949962e-01
1.730989682842949962e-01
1.623996943064577869e-01
1.623996943064577869e-01
1.623996943064577869e-01
1.719526175009552793e-01
1.719526175009552793e-01
1.700420328620557975e-01
1.700420328620557975e-01
1.700420328620557975e-01
1.753916698509744021e-01
1.753916698509744021e-01
1.799770729843332140e-01
1.799770729843332140e-01
1.799770729843332140e-01
1.987008024455483302e-01
1.987008024455483302e-01
2.002292701566679434e-01
2.002292701566679434e-01
2.002292701566679434e-01
2.094000764233855671e-01
2.094000764233855671e-01
2.285059228123805797e-01
2.285059228123805797e-01
2.285059228123805797e-01
2.174245319067634741e-01
2.174245319067634741e-01
2.277416889568207869e-01
2.277416889568207869e-01
2.277416889568207869e-01
2.300343905235001929e-01
2.300343905235001929e-01
2.399694306457776094e-01
2.399694306457776094e-01
2.399694306457776094e-01
2.525792892625143282e-01
2.525792892625143282e-01
2.583110431792128292e-01
2.583110431792128292e-01
2.583110431792128292e-01
2.655712648070309712e-01
2.655712648070309712e-01
2.804738249904470959e-01
2.804738249904470959e-01
2.804738249904470959e-01
2.969048528849828061e-01
2.969048528849828061e-01
2.900267481849446161e-01
2.900267481849446161e-01
2.900267481849446161e-01
2.980512036683224952e-01
2.980512036683224952e-01
3.183034008406572246e-01
3.183034008406572246e-01
3.183034008406572246e-01
3.091325945739396008e-01
3.091325945739396008e-01
3.251815055406954702e-01
3.251815055406954702e-01
3.251815055406954702e-01
3.290026748184944339e-01
3.290026748184944339e-01
3.335880779518532457e-01
3.335880779518532457e-01
3.335880779518532457e-01
3.454337027130301996e-01
3.454337027130301996e-01
3.484906381352693705e-01
3.484906381352693705e-01
3.484906381352693705e-01
3.618647306075659098e-01
3.618647306075659098e-01
3.714176538020634299e-01
3.714176538020634299e-01
3.714176538020634299e-01
3.611004967520061171e-01
3.611004967520061171e-01
3.794421092854413646e-01
3.794421092854413646e-01
3.794421092854413646e-01
3.798242262132212610e-01
3.798242262132212610e-01
3.744745892243026564e-01
3.744745892243026564e-01
3.744745892243026564e-01
3.798242262132212610e-01
3.798242262132212610e-01
3.920519679021780557e-01
3.920519679021780557e-01
3.920519679021780557e-01
3.977837218188765567e-01
3.977837218188765567e-01
4.019870080244554722e-01
4.019870080244554722e-01
4.019870080244554722e-01
3.867023309132594511e-01
3.867023309132594511e-01
4.073366450133740768e-01
4.073366450133740768e-01
4.073366450133740768e-01
4.016048910966755758e-01
4.016048910966755758e-01
4.107756973633931996e-01
4.107756973633931996e-01
4.107756973633931996e-01
4.050439434466946986e-01
4.050439434466946986e-01
4.061902942300343877e-01
4.061902942300343877e-01
4.061902942300343877e-01
4.081008788689338695e-01
4.081008788689338695e-01
4.149789835689721151e-01
4.149789835689721151e-01
4.149789835689721151e-01
4.203286205578907198e-01
4.203286205578907198e-01
4.249140236912495316e-01
4.249140236912495316e-01
4.249140236912495316e-01
4.126862820022926814e-01
4.126862820022926814e-01
4.218570882690103052e-01
4.218570882690103052e-01
4.218570882690103052e-01
4.165074512800917006e-01
4.165074512800917006e-01
4.264424914023691171e-01
4.264424914023691171e-01
4.264424914023691171e-01
4.142147497134123224e-01
4.142147497134123224e-01
4.222392051967902016e-01
4.222392051967902016e-01
4.222392051967902016e-01
4.226213221245700979e-01
4.226213221245700979e-01
4.249140236912495316e-01
4.249140236912495316e-01
4.249140236912495316e-01
4.172716851356514933e-01
4.172716851356514933e-01
4.180359189912112861e-01
4.180359189912112861e-01
4.180359189912112861e-01
4.230034390523499943e-01
4.230034390523499943e-01
4.191822697745510307e-01
4.191822697745510307e-01
4.126862820022926814e-01
4.126862820022926814e-01
4.126862820022926814e-01
4.157432174245319079e-01
4.157432174245319079e-01
4.115399312189529923e-01
4.115399312189529923e-01
4.115399312189529923e-01
4.111578142911730960e-01
4.111578142911730960e-01
4.161253343523118042e-01
4.161253343523118042e-01
4.161253343523118042e-01
4.172716851356514933e-01
4.172716851356514933e-01
4.046618265189148023e-01
4.046618265189148023e-01
4.046618265189148023e-01
4.038975926633550095e-01
4.038975926633550095e-01
4.126862820022926814e-01
4.126862820022926814e-01
4.126862820022926814e-01
4.138326327856324260e-01
4.138326327856324260e-01
4.081008788689338695e-01
4.081008788689338695e-01
4.081008788689338695e-01
4.016048910966755758e-01
4.016048910966755758e-01
3.954910202521971785e-01
3.954910202521971785e-01
3.954910202521971785e-01
4.061902942300343877e-01
4.061902942300343877e-01
4.065724111578142841e-01
4.065724111578142841e-01
4.065724111578142841e-01
4.008406572411157831e-01
4.008406572411157831e-01
3.893771494077187811e-01
3.893771494077187811e-01
3.893771494077187811e-01
3.867023309132594511e-01
3.867023309132594511e-01
3.889950324799388848e-01
3.889950324799388848e-01
3.889950324799388848e-01
3.985479556744364049e-01
3.985479556744364049e-01
3.832632785632403283e-01
3.832632785632403283e-01
3.832632785632403283e-01
3.897592663354986775e-01
3.897592663354986775e-01
3.909056171188383666e-01
3.909056171188383666e-01
3.909056171188383666e-01
3.748567061520825527e-01
3.748567061520825527e-01
3.748567061520825527e-01
3.748567061520825527e-01
3.748567061520825527e-01
3.809705769965609501e-01
3.809705769965609501e-01
3.805884600687810537e-01
3.805884600687810537e-01
3.805884600687810537e-01
3.790599923576614683e-01
3.790599923576614683e-01
3.611004967520061171e-01
3.611004967520061171e-01
3.611004967520061171e-01
3.641574321742453435e-01
3.641574321742453435e-01
3.744745892243026564e-01
3.744745892243026564e-01
3.744745892243026564e-01
3.565150936186473052e-01
3.565150936186473052e-01
3.519296904852884933e-01
3.519296904852884933e-01
3.519296904852884933e-01
3.454337027130301996e-01
3.454337027130301996e-01
3.416125334352311804e-01
3.416125334352311804e-01
3.416125334352311804e-01
3.458158196408100959e-01
3.458158196408100959e-01
3.526939243408482860e-01
3.526939243408482860e-01
3.526939243408482860e-01
3.477264042797095778e-01
3.477264042797095778e-01
3.370271303018723685e-01
3.370271303018723685e-01
3.370271303018723685e-01
3.282384409629346411e-01
3.282384409629346411e-01
3.328238440962934530e-01
3.328238440962934530e-01
3.328238440962934530e-01
3.274742071073748484e-01
3.274742071073748484e-01
3.217424531906763474e-01
3.217424531906763474e-01
3.217424531906763474e-01
3.290026748184944339e-01
3.290026748184944339e-01
3.267099732518150557e-01
3.267099732518150557e-01
3.267099732518150557e-01
3.079862437905999117e-01
3.079862437905999117e-01
3.076041268628200154e-01
3.076041268628200154e-01
3.076041268628200154e-01
2.984333205961023916e-01
2.984333205961023916e-01
2.969048528849828061e-01
2.969048528849828061e-01
2.969048528849828061e-01
2.907909820405044088e-01
2.907909820405044088e-01
2.934658005349636833e-01
2.934658005349636833e-01
2.934658005349636833e-01
2.854413450515858042e-01
2.854413450515858042e-01
2.934658005349636833e-01
2.934658005349636833e-01
2.934658005349636833e-01
2.808559419182269923e-01
2.808559419182269923e-01
2.854413450515858042e-01
2.854413450515858042e-01
2.854413450515858042e-01
2.858234619793657005e-01
2.858234619793657005e-01
2.800917080626671996e-01
2.800917080626671996e-01
2.800917080626671996e-01
2.720672525792892649e-01
2.720672525792892649e-01
2.667176155903706603e-01
2.667176155903706603e-01
2.667176155903706603e-01
2.636606801681314338e-01
2.636606801681314338e-01
2.567825754680932437e-01
2.567825754680932437e-01
2.567825754680932437e-01
2.567825754680932437e-01
2.567825754680932437e-01
2.541077569736339137e-01
2.541077569736339137e-01
2.541077569736339137e-01
2.628964463125716411e-01
2.628964463125716411e-01
2.460833014902560067e-01
2.460833014902560067e-01
2.460833014902560067e-01
2.560183416125334510e-01
2.560183416125334510e-01
2.395873137179977130e-01
2.395873137179977130e-01
2.395873137179977130e-01
2.491402369124952332e-01
2.491402369124952332e-01
2.476117692013756200e-01
2.476117692013756200e-01
2.476117692013756200e-01
2.392051967902178167e-01
2.392051967902178167e-01
2.407336645013374021e-01
2.407336645013374021e-01
2.407336645013374021e-01
2.330913259457393916e-01
2.330913259457393916e-01
2.300343905235001929e-01
2.300343905235001929e-01
2.300343905235001929e-01
2.350019105846389011e-01
2.350019105846389011e-01
2.395873137179977130e-01
2.395873137179977130e-01
2.395873137179977130e-01
2.422621322124570153e-01
2.422621322124570153e-01
2.338555598012991843e-01
2.338555598012991843e-01
2.338555598012991843e-01
2.384409629346579962e-01
2.384409629346579962e-01
2.342376767290791084e-01
2.342376767290791084e-01
2.342376767290791084e-01
2.227741688956820787e-01
2.227741688956820787e-01
2.365303782957585144e-01
2.365303782957585144e-01
2.281238058846006833e-01
2.281238058846006833e-01
2.281238058846006833e-01
2.193351165456629837e-01
2.193351165456629837e-01
2.216278181123423896e-01
2.216278181123423896e-01
2.216278181123423896e-01
2.258311043179212774e-01
2.258311043179212774e-01
2.166602980512036813e-01
2.166602980512036813e-01
2.166602980512036813e-01
2.323270920901795988e-01
2.323270920901795988e-01
2.178066488345433704e-01
2.178066488345433704e-01
2.178066488345433704e-01
2.243026366068016919e-01
2.243026366068016919e-01
2.231562858234619751e-01
2.231562858234619751e-01
2.231562858234619751e-01
2.265953381734810979e-01
2.265953381734810979e-01
2.269774551012609942e-01
2.269774551012609942e-01
2.269774551012609942e-01
2.170424149789835777e-01
2.170424149789835777e-01
2.273595720290408906e-01
2.273595720290408906e-01
2.273595720290408906e-01
2.200993504012227764e-01
2.200993504012227764e-01
2.216278181123423896e-01
2.216278181123423896e-01
2.216278181123423896e-01
2.128391287734046622e-01
2.128391287734046622e-01
2.078716087122659539e-01
2.078716087122659539e-01
2.078716087122659539e-01
2.204814673290026728e-01
2.204814673290026728e-01
2.204814673290026728e-01
2.204814673290026728e-01
2.204814673290026728e-01
2.105464272067252562e-01
2.105464272067252562e-01
2.097821933511654635e-01
2.097821933511654635e-01
2.097821933511654635e-01
2.128391287734046622e-01
2.128391287734046622e-01
2.101643102789453599e-01
2.101643102789453599e-01
2.101643102789453599e-01
2.223920519679021823e-01
2.223920519679021823e-01
2.208635842567825691e-01
2.208635842567825691e-01
2.208635842567825691e-01
2.262132212457011737e-01
2.262132212457011737e-01
2.174245319067634741e-01
2.174245319067634741e-01
2.174245319067634741e-01
2.235384027512418714e-01
2.235384027512418714e-01
2.158960641956438609e-01
2.158960641956438609e-01
2.158960641956438609e-01
2.208635842567825691e-01
2.208635842567825691e-01
2.063431410011463407e-01
2.063431410011463407e-01
2.063431410011463407e-01
2.193351165456629837e-01
2.193351165456629837e-01
2.200993504012227764e-01
2.200993504012227764e-01
2.200993504012227764e-01
2.086358425678257467e-01
2.086358425678257467e-01
2.139854795567443513e-01
2.139854795567443513e-01
2.139854795567443513e-01
2.231562858234619751e-01
2.231562858234619751e-01
2.017577378677875566e-01
2.017577378677875566e-01
2.017577378677875566e-01
2.025219717233473493e-01
2.025219717233473493e-01
2.193351165456629837e-01
2.193351165456629837e-01
2.193351165456629837e-01
2.055789071455865480e-01
2.055789071455865480e-01
2.132212457011845586e-01
2.132212457011845586e-01
2.132212457011845586e-01
2.132212457011845586e-01
2.132212457011845586e-01
2.162781811234237572e-01
2.162781811234237572e-01
2.162781811234237572e-01
2.090179594956056430e-01
2.090179594956056430e-01
2.090179594956056430e-01
2.090179594956056430e-01
2.090179594956056430e-01
2.067252579289262648e-01
2.067252579289262648e-01
2.071073748567061612e-01
2.071073748567061612e-01
2.071073748567061612e-01
2.067252579289262648e-01
2.067252579289262648e-01
1.971723347344287447e-01
1.971723347344287447e-01
1.971723347344287447e-01
1.952617500955292351e-01
1.952617500955292351e-01
2.002292701566679434e-01
2.002292701566679434e-01
2.002292701566679434e-01
1.918226977455101123e-01
1.918226977455101123e-01
1.914405808177302160e-01
1.914405808177302160e-01
1.914405808177302160e-01
2.021398547955674529e-01
2.021398547955674529e-01
2.013756209400076325e-01
2.013756209400076325e-01
2.013756209400076325e-01
2.017577378677875566e-01
2.017577378677875566e-01
1.944975162399694424e-01
1.944975162399694424e-01
1.944975162399694424e-01
1.906763469621704232e-01
1.906763469621704232e-01
1.910584638899503196e-01
1.910584638899503196e-01
1.910584638899503196e-01
1.944975162399694424e-01
1.944975162399694424e-01
1.983186855177684338e-01
1.983186855177684338e-01
1.983186855177684338e-01
1.987008024455483302e-01
1.987008024455483302e-01
1.857088269010317150e-01
1.857088269010317150e-01
1.857088269010317150e-01
2.032862055789071420e-01
2.032862055789071420e-01
1.876194115399312246e-01
1.876194115399312246e-01
1.876194115399312246e-01
1.956438670233091315e-01
1.956438670233091315e-01
1.891478792510508100e-01
1.891478792510508100e-01
1.891478792510508100e-01
1.967902178066488483e-01
1.967902178066488483e-01
2.048146732900267553e-01
2.048146732900267553e-01
2.048146732900267553e-01
1.826518914787925163e-01
1.826518914787925163e-01
1.956438670233091315e-01
1.956438670233091315e-01
1.956438670233091315e-01
1.964081008788689242e-01
1.964081008788689242e-01
1.979365685899885374e-01
1.979365685899885374e-01
1.979365685899885374e-01
1.975544516622086411e-01
1.975544516622086411e-01
1.803591899121131104e-01
1.803591899121131104e-01
1.803591899121131104e-01
1.922048146732900364e-01
1.922048146732900364e-01
1.929690485288498292e-01
1.929690485288498292e-01
1.929690485288498292e-01
1.730989682842949962e-01
1.730989682842949962e-01
1.773022544898739117e-01
1.773022544898739117e-01
1.773022544898739117e-01
1.727168513565150998e-01
1.727168513565150998e-01
1.792128391287733935e-01
1.792128391287733935e-01
1.792128391287733935e-01
1.757737867787542985e-01
1.757737867787542985e-01
1.715705005731753829e-01
1.715705005731753829e-01
1.906763469621704232e-01
1.906763469621704232e-01
1.906763469621704232e-01
1.845624761176920259e-01
1.845624761176920259e-01
1.795949560565533176e-01
1.795949560565533176e-01
1.795949560565533176e-01
1.666029805120366747e-01
1.666029805120366747e-01
1.860909438288116113e-01
1.860909438288116113e-01
1.860909438288116113e-01
1.704241497898356938e-01
1.704241497898356938e-01
1.815055406954527994e-01
1.815055406954527994e-01
1.815055406954527994e-01
1.704241497898356938e-01
1.704241497898356938e-01
1.857088269010317150e-01
1.857088269010317150e-01
1.857088269010317150e-01
1.880015284677111209e-01
1.880015284677111209e-01
1.704241497898356938e-01
1.704241497898356938e-01
1.704241497898356938e-01
1.688956820787160806e-01
1.688956820787160806e-01
1.769201375620939876e-01
1.769201375620939876e-01
1.769201375620939876e-01
1.692777990064959770e-01
1.692777990064959770e-01
1.604891096675582773e-01
1.604891096675582773e-01
1.604891096675582773e-01
1.711883836453954866e-01
1.711883836453954866e-01
1.612533435231180701e-01
1.612533435231180701e-01
1.612533435231180701e-01
1.639281620175773724e-01
1.639281620175773724e-01
1.776843714176538080e-01
1.776843714176538080e-01
1.776843714176538080e-01
1.639281620175773724e-01
1.639281620175773724e-01
1.608712265953381737e-01
1.608712265953381737e-01
1.608712265953381737e-01
1.719526175009552793e-01
1.719526175009552793e-01
1.700420328620557975e-01
1.700420328620557975e-01
1.700420328620557975e-01
1.658387466564768820e-01
1.658387466564768820e-01
1.692777990064959770e-01
1.692777990064959770e-01
1.692777990064959770e-01
1.635460450897974760e-01
1.635460450897974760e-01
1.730989682842949962e-01
1.730989682842949962e-01
1.730989682842949962e-01
1.700420328620557975e-01
1.700420328620557975e-01
1.570500573175391545e-01
1.570500573175391545e-01
1.570500573175391545e-01
1.616354604508979664e-01
1.616354604508979664e-01
1.681314482231562879e-01
1.681314482231562879e-01
1.681314482231562879e-01
1.474971341230416622e-01
1.474971341230416622e-01
1.589606419564386641e-01
1.589606419564386641e-01
1.589606419564386641e-01
1.711883836453954866e-01
1.711883836453954866e-01
1.711883836453954866e-01
1.711883836453954866e-01
1.711883836453954866e-01
1.734810852120748925e-01
1.734810852120748925e-01
1.715705005731753829e-01
1.715705005731753829e-01
1.715705005731753829e-01
1.730989682842949962e-01
1.730989682842949962e-01
1.681314482231562879e-01
1.681314482231562879e-01
1.681314482231562879e-01
1.555215896064195691e-01
1.555215896064195691e-01
1.505540695452808608e-01
1.505540695452808608e-01
1.505540695452808608e-01
1.650745128009170892e-01
1.650745128009170892e-01
1.604891096675582773e-01
1.604891096675582773e-01
1.604891096675582773e-01
1.543752388230798522e-01
1.543752388230798522e-01
1.520825372564004463e-01
1.520825372564004463e-01
1.520825372564004463e-01
1.692777990064959770e-01
1.692777990064959770e-01
1.490256018341612476e-01
1.490256018341612476e-01
1.490256018341612476e-01
1.486434849063813513e-01
1.486434849063813513e-01
1.501719526175009645e-01
1.501719526175009645e-01
1.501719526175009645e-01
1.524646541841803704e-01
1.524646541841803704e-01
1.646923958731371929e-01
1.646923958731371929e-01
1.646923958731371929e-01
1.551394726786396727e-01
1.551394726786396727e-01
1.474971341230416622e-01
1.474971341230416622e-01
1.474971341230416622e-01
1.662208635842567783e-01
1.662208635842567783e-01
1.608712265953381737e-01
1.608712265953381737e-01
1.608712265953381737e-01
1.666029805120366747e-01
1.666029805120366747e-01
1.616354604508979664e-01
1.616354604508979664e-01
1.616354604508979664e-01
1.650745128009170892e-01
1.650745128009170892e-01
1.536110049675200595e-01
1.536110049675200595e-01
1.536110049675200595e-01
1.555215896064195691e-01
1.555215896064195691e-01
1.539931218952999559e-01
1.539931218952999559e-01
1.539931218952999559e-01
1.459686664119220489e-01
1.459686664119220489e-01
1.612533435231180701e-01
1.612533435231180701e-01
1.612533435231180701e-01
1.539931218952999559e-01
1.539931218952999559e-01
1.471150171952617380e-01
1.471150171952617380e-01
1.471150171952617380e-01
1.616354604508979664e-01
1.616354604508979664e-01
1.532288880397401631e-01
1.532288880397401631e-01
1.532288880397401631e-01
1.520825372564004463e-01
1.520825372564004463e-01
1.650745128009170892e-01
1.650745128009170892e-01
1.650745128009170892e-01
1.459686664119220489e-01
1.459686664119220489e-01
1.532288880397401631e-01
1.532288880397401631e-01
1.532288880397401631e-01
1.608712265953381737e-01
1.608712265953381737e-01
1.643102789453572687e-01
1.643102789453572687e-01
1.643102789453572687e-01
1.543752388230798522e-01
1.543752388230798522e-01
1.471150171952617380e-01
1.471150171952617380e-01
1.471150171952617380e-01
1.528467711119602668e-01
1.528467711119602668e-01
1.471150171952617380e-01
1.471150171952617380e-01
1.471150171952617380e-01
1.467329002674818417e-01
1.467329002674818417e-01
1.543752388230798522e-01
1.543752388230798522e-01
1.543752388230798522e-01
1.429117309896828503e-01
1.429117309896828503e-01
1.517004203286205499e-01
1.517004203286205499e-01
1.452044325563622562e-01
1.452044325563622562e-01
1.452044325563622562e-01
1.429117309896828503e-01
1.429117309896828503e-01
1.410011463507833407e-01
1.410011463507833407e-01
1.410011463507833407e-01
1.581964081008788714e-01
1.581964081008788714e-01
1.406190294230034443e-01
1.406190294230034443e-01
1.406190294230034443e-01
1.486434849063813513e-01
1.486434849063813513e-01
1.421474971341230298e-01
1.421474971341230298e-01
1.421474971341230298e-01
1.604891096675582773e-01
1.604891096675582773e-01
1.543752388230798522e-01
1.543752388230798522e-01
1.543752388230798522e-01
1.474971341230416622e-01
1.474971341230416622e-01
1.593427588842185605e-01
1.593427588842185605e-01
1.593427588842185605e-01
1.585785250286587678e-01
1.585785250286587678e-01
1.509361864730607572e-01
1.509361864730607572e-01
1.509361864730607572e-01
1.444401987008024357e-01
1.444401987008024357e-01
1.547573557508597764e-01
1.547573557508597764e-01
1.547573557508597764e-01
1.524646541841803704e-01
1.524646541841803704e-01
1.329766908674054338e-01
1.329766908674054338e-01
1.329766908674054338e-01
1.421474971341230298e-01
1.421474971341230298e-01
1.589606419564386641e-01
1.589606419564386641e-01
1.589606419564386641e-01
1.517004203286205499e-01
1.517004203286205499e-01
1.612533435231180701e-01
1.612533435231180701e-01
1.612533435231180701e-01
1.574321742453190787e-01
1.574321742453190787e-01
1.417653802063431334e-01
1.417653802063431334e-01
1.417653802063431334e-01
1.448223156285823598e-01
1.448223156285823598e-01
1.631639281620175796e-01
1.631639281620175796e-01
1.631639281620175796e-01
1.574321742453190787e-01
1.574321742453190787e-01
1.562858234619793618e-01
1.562858234619793618e-01
1.562858234619793618e-01
1.543752388230798522e-01
1.543752388230798522e-01
1.734810852120748925e-01
1.734810852120748925e-01
1.734810852120748925e-01
1.570500573175391545e-01
1.570500573175391545e-01
1.608712265953381737e-01
1.608712265953381737e-01
1.608712265953381737e-01
1.715705005731753829e-01
1.715705005731753829e-01
1.765380206343140912e-01
1.765380206343140912e-01
1.765380206343140912e-01
1.780664883454337044e-01
1.780664883454337044e-01
1.925869316010699328e-01
1.925869316010699328e-01
1.925869316010699328e-01
1.979365685899885374e-01
1.979365685899885374e-01
2.006113870844478397e-01
2.006113870844478397e-01
2.006113870844478397e-01
2.116927779900649731e-01
2.116927779900649731e-01
2.353840275124187975e-01
2.353840275124187975e-01
2.353840275124187975e-01
2.223920519679021823e-01
2.223920519679021823e-01
2.457011845624761104e-01
2.457011845624761104e-01
2.457011845624761104e-01
2.376767290790982035e-01
2.376767290790982035e-01
2.445548337791364213e-01
2.445548337791364213e-01
2.445548337791364213e-01
2.709209017959495758e-01
2.709209017959495758e-01
2.663354986625907639e-01
2.663354986625907639e-01
2.663354986625907639e-01
2.831486434849063705e-01
2.831486434849063705e-01
2.846771111960260114e-01
2.846771111960260114e-01
2.846771111960260114e-01
3.056935422239205336e-01
3.056935422239205336e-01
3.152464654184180537e-01
3.152464654184180537e-01
3.152464654184180537e-01
3.160106992739778464e-01
3.160106992739778464e-01
3.198318685517768656e-01
3.198318685517768656e-01
3.198318685517768656e-01
3.247993886129155738e-01
3.247993886129155738e-01
3.335880779518532457e-01
3.335880779518532457e-01
3.335880779518532457e-01
3.484906381352693705e-01
3.484906381352693705e-01
3.473442873519296814e-01
3.473442873519296814e-01
3.473442873519296814e-01
3.553687428353076161e-01
3.553687428353076161e-01
3.607183798242262207e-01
3.607183798242262207e-01
3.607183798242262207e-01
3.721818876576232227e-01
3.721818876576232227e-01
3.805884600687810537e-01
3.805884600687810537e-01
3.805884600687810537e-01
3.782957585021016200e-01
3.782957585021016200e-01
3.824990447076805355e-01
3.824990447076805355e-01
3.824990447076805355e-01
3.924340848299579521e-01
3.924340848299579521e-01
3.851738632021398656e-01
3.851738632021398656e-01
3.851738632021398656e-01
3.870844478410393474e-01
3.870844478410393474e-01
4.058081773022544914e-01
4.058081773022544914e-01
4.058081773022544914e-01
3.993121895299961976e-01
3.993121895299961976e-01
4.111578142911730960e-01
4.111578142911730960e-01
4.111578142911730960e-01
4.042797095911349059e-01
4.042797095911349059e-01
4.149789835689721151e-01
4.149789835689721151e-01
4.149789835689721151e-01
4.100114635078334069e-01
4.100114635078334069e-01
4.256782575468093244e-01
4.256782575468093244e-01
4.256782575468093244e-01
4.233855559801299462e-01
4.233855559801299462e-01
4.310278945357279290e-01
4.310278945357279290e-01
4.310278945357279290e-01
4.314100114635078254e-01
4.314100114635078254e-01
4.321742453190676181e-01
4.321742453190676181e-01
4.321742453190676181e-01
4.256782575468093244e-01
4.256782575468093244e-01
4.287351929690485508e-01
4.287351929690485508e-01
4.287351929690485508e-01
4.356132976690867409e-01
4.356132976690867409e-01
4.302636606801681363e-01
4.302636606801681363e-01
4.302636606801681363e-01
4.264424914023691171e-01
4.264424914023691171e-01
4.428735192969048273e-01
4.428735192969048273e-01
4.428735192969048273e-01
4.321742453190676181e-01
4.321742453190676181e-01
4.413450515857852419e-01
4.413450515857852419e-01
4.405808177302254491e-01
4.405808177302254491e-01
4.405808177302254491e-01
4.444019870080244683e-01
4.444019870080244683e-01
4.352311807413068445e-01
4.352311807413068445e-01
4.352311807413068445e-01
4.375238823079862227e-01
4.375238823079862227e-01
4.333205961024073627e-01
4.333205961024073627e-01
4.333205961024073627e-01
4.245319067634696353e-01
4.245319067634696353e-01
4.256782575468093244e-01
4.256782575468093244e-01
4.256782575468093244e-01
4.275888421857088062e-01
4.275888421857088062e-01
4.252961406190294280e-01
4.252961406190294280e-01
4.252961406190294280e-01
4.264424914023691171e-01
4.264424914023691171e-01
4.325563622468475145e-01
4.325563622468475145e-01
4.325563622468475145e-01
4.302636606801681363e-01
4.302636606801681363e-01
4.306457776079480326e-01
4.306457776079480326e-01
4.306457776079480326e-01
4.111578142911730960e-01
4.111578142911730960e-01
4.184180359189912379e-01
4.184180359189912379e-01
4.184180359189912379e-01
4.275888421857088062e-01
4.275888421857088062e-01
4.172716851356514933e-01
4.172716851356514933e-01
4.172716851356514933e-01
4.096293465800535105e-01
4.096293465800535105e-01
4.195643867023309270e-01
4.195643867023309270e-01
4.195643867023309270e-01
3.989300726022163013e-01
3.989300726022163013e-01
4.038975926633550095e-01
4.038975926633550095e-01
4.038975926633550095e-01
4.111578142911730960e-01
4.111578142911730960e-01
3.993121895299961976e-01
3.993121895299961976e-01
3.993121895299961976e-01
4.035154757355751132e-01
4.035154757355751132e-01
3.924340848299579521e-01
3.924340848299579521e-01
3.924340848299579521e-01
3.905235001910584702e-01
3.905235001910584702e-01
3.951089033244172821e-01
3.951089033244172821e-01
3.951089033244172821e-01
3.943446694688574894e-01
3.943446694688574894e-01
3.916698509743981593e-01
3.916698509743981593e-01
3.916698509743981593e-01
3.920519679021780557e-01
3.920519679021780557e-01
3.840275124188001765e-01
3.840275124188001765e-01
3.840275124188001765e-01
3.863202139854795547e-01
3.863202139854795547e-01
3.779136415743217237e-01
3.779136415743217237e-01
3.779136415743217237e-01
3.893771494077187811e-01
3.893771494077187811e-01
3.710355368742835336e-01
3.710355368742835336e-01
3.710355368742835336e-01
3.733282384409629118e-01
3.733282384409629118e-01
3.672143675964845144e-01
3.672143675964845144e-01
3.672143675964845144e-01
3.668322506687046181e-01
3.668322506687046181e-01
3.744745892243026564e-01
3.744745892243026564e-01
3.744745892243026564e-01
3.614826136797860134e-01
3.614826136797860134e-01
3.591899121131066352e-01
3.591899121131066352e-01
3.591899121131066352e-01
3.591899121131066352e-01
3.591899121131066352e-01
3.500191058463890115e-01
3.500191058463890115e-01
3.500191058463890115e-01
3.492548719908292187e-01
3.492548719908292187e-01
3.412304165074512841e-01
3.412304165074512841e-01
3.412304165074512841e-01
3.393198318685518022e-01
3.393198318685518022e-01
3.458158196408100959e-01
3.458158196408100959e-01
3.458158196408100959e-01
3.293847917462743857e-01
3.293847917462743857e-01
3.465800534963698887e-01
3.465800534963698887e-01
3.465800534963698887e-01
3.358807795185326794e-01
3.358807795185326794e-01
3.309132594573939712e-01
3.309132594573939712e-01
3.309132594573939712e-01
3.194497516239969692e-01
3.194497516239969692e-01
3.198318685517768656e-01
3.198318685517768656e-01
3.198318685517768656e-01
3.137179977072984127e-01
3.137179977072984127e-01
3.133358807795185164e-01
3.133358807795185164e-01
3.133358807795185164e-01
3.118074130683989309e-01
3.118074130683989309e-01
3.087504776461597045e-01
3.087504776461597045e-01
3.087504776461597045e-01
3.053114252961406372e-01
3.053114252961406372e-01
2.953763851738632207e-01
2.953763851738632207e-01
2.953763851738632207e-01
2.884982804738249751e-01
2.884982804738249751e-01
2.938479174627435797e-01
2.938479174627435797e-01
2.938479174627435797e-01
2.865876958349254933e-01
2.865876958349254933e-01
2.881161635460450787e-01
2.881161635460450787e-01
2.881161635460450787e-01
2.812380588460068886e-01
2.812380588460068886e-01
2.770347726404279731e-01
2.770347726404279731e-01
2.770347726404279731e-01
2.713030187237294721e-01
2.713030187237294721e-01
2.755063049293083877e-01
2.755063049293083877e-01
2.755063049293083877e-01
2.743599541459686431e-01
2.743599541459686431e-01
2.686282002292701421e-01
2.686282002292701421e-01
2.686282002292701421e-01
2.789453572793274549e-01
2.789453572793274549e-01
2.552541077569736583e-01
2.552541077569736583e-01
2.552541077569736583e-01
2.678639663737103493e-01
2.678639663737103493e-01
2.648070309514711229e-01
2.648070309514711229e-01
2.648070309514711229e-01
2.583110431792128292e-01
2.583110431792128292e-01
2.464654184180359309e-01
2.464654184180359309e-01
2.464654184180359309e-01
2.434084829957967044e-01
2.434084829957967044e-01
2.384409629346579962e-01
2.384409629346579962e-01
2.384409629346579962e-01
2.369124952235384107e-01
2.369124952235384107e-01
2.449369507069163177e-01
2.449369507069163177e-01
2.449369507069163177e-01
2.311807413068398820e-01
2.311807413068398820e-01
2.449369507069163177e-01
2.449369507069163177e-01
2.311807413068398820e-01
2.311807413068398820e-01
2.311807413068398820e-01
2.418800152846771190e-01
2.418800152846771190e-01
2.292701566679404002e-01
2.292701566679404002e-01
2.292701566679404002e-01
2.434084829957967044e-01
2.434084829957967044e-01
2.346197936568590048e-01
2.346197936568590048e-01
2.346197936568590048e-01
2.365303782957585144e-01
2.365303782957585144e-01
2.285059228123805797e-01
2.285059228123805797e-01
2.285059228123805797e-01
2.204814673290026728e-01
2.204814673290026728e-01
2.208635842567825691e-01
2.208635842567825691e-01
2.208635842567825691e-01
2.334734428735192879e-01
2.334734428735192879e-01
2.288880397401604760e-01
2.288880397401604760e-01
2.288880397401604760e-01
2.136033626289644549e-01
2.136033626289644549e-01
2.258311043179212774e-01
2.258311043179212774e-01
2.258311043179212774e-01
2.155139472678639645e-01
2.155139472678639645e-01
2.277416889568207869e-01
2.277416889568207869e-01
2.277416889568207869e-01
2.311807413068398820e-01
2.311807413068398820e-01
2.269774551012609942e-01
2.269774551012609942e-01
2.269774551012609942e-01
2.143675964845242754e-01
2.143675964845242754e-01
2.292701566679404002e-01
2.292701566679404002e-01
2.292701566679404002e-01
2.170424149789835777e-01
2.170424149789835777e-01
2.239205196790217678e-01
2.239205196790217678e-01
2.239205196790217678e-01
2.285059228123805797e-01
2.285059228123805797e-01
2.071073748567061612e-01
2.071073748567061612e-01
2.071073748567061612e-01
2.162781811234237572e-01
2.162781811234237572e-01
2.246847535345815883e-01
2.246847535345815883e-01
2.246847535345815883e-01
2.078716087122659539e-01
2.078716087122659539e-01
2.204814673290026728e-01
2.204814673290026728e-01
2.204814673290026728e-01
2.189529996178830595e-01
2.189529996178830595e-01
2.120748949178448695e-01
2.120748949178448695e-01
2.120748949178448695e-01
2.220099350401222860e-01
2.220099350401222860e-01
2.197172334734428800e-01
2.197172334734428800e-01
2.197172334734428800e-01
2.147497134123041718e-01
2.147497134123041718e-01
2.063431410011463407e-01
2.063431410011463407e-01
2.063431410011463407e-01
2.174245319067634741e-01
2.174245319067634741e-01
2.067252579289262648e-01
2.067252579289262648e-01
2.067252579289262648e-01
2.025219717233473493e-01
2.025219717233473493e-01
2.109285441345051526e-01
2.109285441345051526e-01
2.109285441345051526e-01
2.178066488345433704e-01
2.178066488345433704e-01
2.162781811234237572e-01
2.162781811234237572e-01
2.162781811234237572e-01
2.036683225066870384e-01
2.036683225066870384e-01
1.990829193733282265e-01
1.990829193733282265e-01
1.990829193733282265e-01
2.090179594956056430e-01
2.090179594956056430e-01
2.036683225066870384e-01
2.036683225066870384e-01
2.036683225066870384e-01
2.063431410011463407e-01
2.063431410011463407e-01
1.983186855177684338e-01
1.983186855177684338e-01
1.983186855177684338e-01
2.006113870844478397e-01
2.006113870844478397e-01
1.941153993121895183e-01
1.941153993121895183e-01
1.941153993121895183e-01
2.139854795567443513e-01
2.139854795567443513e-01
1.914405808177302160e-01
1.914405808177302160e-01
1.914405808177302160e-01
2.101643102789453599e-01
2.101643102789453599e-01
1.967902178066488483e-01
1.967902178066488483e-01
1.967902178066488483e-01
1.994650363011081506e-01
1.994650363011081506e-01
1.975544516622086411e-01
1.975544516622086411e-01
1.975544516622086411e-01
2.113106610622850490e-01
2.113106610622850490e-01
1.944975162399694424e-01
1.944975162399694424e-01
1.944975162399694424e-01
2.032862055789071420e-01
2.032862055789071420e-01
2.055789071455865480e-01
2.055789071455865480e-01
2.055789071455865480e-01
1.906763469621704232e-01
1.906763469621704232e-01
1.994650363011081506e-01
1.994650363011081506e-01
1.994650363011081506e-01
1.998471532288880470e-01
1.998471532288880470e-01
1.910584638899503196e-01
1.910584638899503196e-01
1.910584638899503196e-01
1.895299961788307341e-01
1.895299961788307341e-01
1.979365685899885374e-01
1.979365685899885374e-01
1.979365685899885374e-01
1.872372946121513282e-01
1.872372946121513282e-01
1.975544516622086411e-01
1.975544516622086411e-01
1.975544516622086411e-01
1.837982422621322054e-01
1.837982422621322054e-01
1.983186855177684338e-01
1.983186855177684338e-01
1.983186855177684338e-01
1.948796331677493388e-01
1.948796331677493388e-01
1.837982422621322054e-01
1.837982422621322054e-01
1.837982422621322054e-01
1.952617500955292351e-01
1.952617500955292351e-01
1.914405808177302160e-01
1.914405808177302160e-01
1.914405808177302160e-01
1.841803591899121018e-01
1.841803591899121018e-01
1.987008024455483302e-01
1.987008024455483302e-01
1.987008024455483302e-01
1.994650363011081506e-01
1.994650363011081506e-01
1.891478792510508100e-01
1.891478792510508100e-01
1.891478792510508100e-01
1.914405808177302160e-01
1.914405808177302160e-01
1.933511654566297255e-01
1.933511654566297255e-01
1.933511654566297255e-01
1.983186855177684338e-01
1.983186855177684338e-01
1.906763469621704232e-01
1.906763469621704232e-01
1.906763469621704232e-01
1.780664883454337044e-01
1.780664883454337044e-01
1.868551776843714041e-01
1.868551776843714041e-01
1.910584638899503196e-01
1.910584638899503196e-01
1.910584638899503196e-01
1.906763469621704232e-01
1.906763469621704232e-01
1.711883836453954866e-01
1.711883836453954866e-01
1.711883836453954866e-01
1.761559037065341948e-01
1.761559037065341948e-01
1.864730607565915077e-01
1.864730607565915077e-01
1.864730607565915077e-01
1.719526175009552793e-01
1.719526175009552793e-01
1.857088269010317150e-01
1.857088269010317150e-01
1.857088269010317150e-01
1.715705005731753829e-01
1.715705005731753829e-01
1.864730607565915077e-01
1.864730607565915077e-01
1.864730607565915077e-01
1.822697745510126199e-01
1.822697745510126199e-01
1.696599159342759011e-01
1.696599159342759011e-01
1.696599159342759011e-01
1.860909438288116113e-01
1.860909438288116113e-01
1.799770729843332140e-01
1.799770729843332140e-01
1.799770729843332140e-01
1.643102789453572687e-01
1.643102789453572687e-01
1.635460450897974760e-01
1.635460450897974760e-01
1.635460450897974760e-01
1.727168513565150998e-01
1.727168513565150998e-01
1.769201375620939876e-01
1.769201375620939876e-01
1.769201375620939876e-01
1.646923958731371929e-01
1.646923958731371929e-01
1.646923958731371929e-01
1.646923958731371929e-01
1.646923958731371929e-01
1.711883836453954866e-01
1.711883836453954866e-01
1.646923958731371929e-01
1.646923958731371929e-01
1.646923958731371929e-01
1.696599159342759011e-01
1.696599159342759011e-01
1.608712265953381737e-01
1.608712265953381737e-01
1.608712265953381737e-01
1.639281620175773724e-01
1.639281620175773724e-01
1.646923958731371929e-01
1.646923958731371929e-01
1.646923958731371929e-01
1.612533435231180701e-01
1.612533435231180701e-01
1.711883836453954866e-01
1.711883836453954866e-01
1.711883836453954866e-01
1.639281620175773724e-01
1.639281620175773724e-01
1.773022544898739117e-01
1.773022544898739117e-01
1.773022544898739117e-01
1.761559037065341948e-01
1.761559037065341948e-01
1.585785250286587678e-01
1.585785250286587678e-01
1.585785250286587678e-01
1.635460450897974760e-01
1.635460450897974760e-01
1.543752388230798522e-01
1.543752388230798522e-01
1.543752388230798522e-01
1.620175773786778628e-01
1.620175773786778628e-01
1.524646541841803704e-01
1.524646541841803704e-01
1.524646541841803704e-01
1.543752388230798522e-01
1.543752388230798522e-01
1.623996943064577869e-01
1.623996943064577869e-01
1.623996943064577869e-01
1.669850974398165711e-01
1.669850974398165711e-01
1.536110049675200595e-01
1.536110049675200595e-01
1.536110049675200595e-01
1.662208635842567783e-01
1.662208635842567783e-01
1.612533435231180701e-01
1.612533435231180701e-01
1.612533435231180701e-01
1.646923958731371929e-01
1.646923958731371929e-01
1.650745128009170892e-01
1.650745128009170892e-01
1.650745128009170892e-01
1.551394726786396727e-01
1.551394726786396727e-01
1.501719526175009645e-01
1.501719526175009645e-01
1.501719526175009645e-01
1.536110049675200595e-01
1.536110049675200595e-01
1.574321742453190787e-01
1.574321742453190787e-01
1.574321742453190787e-01
1.631639281620175796e-01
1.631639281620175796e-01
1.539931218952999559e-01
1.539931218952999559e-01
1.539931218952999559e-01
1.677493312953763915e-01
1.677493312953763915e-01
1.623996943064577869e-01
1.623996943064577869e-01
1.623996943064577869e-01
1.536110049675200595e-01
1.536110049675200595e-01
1.608712265953381737e-01
1.608712265953381737e-01
1.608712265953381737e-01
1.543752388230798522e-01
1.543752388230798522e-01
1.604891096675582773e-01
1.604891096675582773e-01
1.604891096675582773e-01
1.654566297286969856e-01
1.654566297286969856e-01
1.486434849063813513e-01
1.486434849063813513e-01
1.486434849063813513e-01
1.555215896064195691e-01
1.555215896064195691e-01
1.539931218952999559e-01
1.539931218952999559e-01
1.539931218952999559e-01
1.654566297286969856e-01
1.654566297286969856e-01
1.452044325563622562e-01
1.452044325563622562e-01
1.452044325563622562e-01
1.623996943064577869e-01
1.623996943064577869e-01
1.593427588842185605e-01
1.593427588842185605e-01
1.593427588842185605e-01
1.463507833397019453e-01
1.463507833397019453e-01
1.463507833397019453e-01
1.463507833397019453e-01
1.463507833397019453e-01
1.513183034008406536e-01
1.513183034008406536e-01
1.452044325563622562e-01
1.452044325563622562e-01
1.452044325563622562e-01
1.566679403897592582e-01
1.566679403897592582e-01
1.459686664119220489e-01
1.459686664119220489e-01
1.459686664119220489e-01
1.517004203286205499e-01
1.517004203286205499e-01
1.524646541841803704e-01
1.524646541841803704e-01
1.524646541841803704e-01
1.539931218952999559e-01
1.539931218952999559e-01
1.566679403897592582e-01
1.566679403897592582e-01
1.566679403897592582e-01
1.467329002674818417e-01
1.467329002674818417e-01
1.482613679786014549e-01
1.482613679786014549e-01
1.482613679786014549e-01
1.467329002674818417e-01
1.467329002674818417e-01
1.490256018341612476e-01
1.490256018341612476e-01
1.490256018341612476e-01
1.555215896064195691e-01
1.555215896064195691e-01
1.429117309896828503e-01
1.429117309896828503e-01
1.429117309896828503e-01
1.474971341230416622e-01
1.474971341230416622e-01
1.413832632785632371e-01
1.413832632785632371e-01
1.413832632785632371e-01
1.581964081008788714e-01
1.581964081008788714e-01
1.543752388230798522e-01
1.543752388230798522e-01
1.436759648452426430e-01
1.436759648452426430e-01
1.436759648452426430e-01
1.444401987008024357e-01
1.444401987008024357e-01
1.612533435231180701e-01
1.612533435231180701e-01
1.612533435231180701e-01
1.379442109285441420e-01
1.379442109285441420e-01
1.413832632785632371e-01
1.413832632785632371e-01
1.413832632785632371e-01
1.570500573175391545e-01
1.570500573175391545e-01
1.570500573175391545e-01
1.570500573175391545e-01
1.570500573175391545e-01
1.417653802063431334e-01
1.417653802063431334e-01
1.562858234619793618e-01
1.562858234619793618e-01
1.562858234619793618e-01
1.425296140619029539e-01
1.425296140619029539e-01
1.467329002674818417e-01
1.467329002674818417e-01
1.467329002674818417e-01
1.524646541841803704e-01
1.524646541841803704e-01
1.432938479174627466e-01
1.432938479174627466e-01
1.432938479174627466e-01
1.398547955674436516e-01
1.398547955674436516e-01
1.566679403897592582e-01
1.566679403897592582e-01
1.566679403897592582e-01
1.371799770729843215e-01
1.371799770729843215e-01
1.559037065341994654e-01
1.559037065341994654e-01
1.559037065341994654e-01
1.509361864730607572e-01
1.509361864730607572e-01
1.505540695452808608e-01
1.505540695452808608e-01
1.505540695452808608e-01
1.394726786396637275e-01
1.394726786396637275e-01
1.562858234619793618e-01
1.562858234619793618e-01
1.562858234619793618e-01
1.551394726786396727e-01
1.551394726786396727e-01
1.505540695452808608e-01
1.505540695452808608e-01
1.505540695452808608e-01
1.478792510508215585e-01
1.478792510508215585e-01
1.520825372564004463e-01
1.520825372564004463e-01
1.520825372564004463e-01
1.589606419564386641e-01
1.589606419564386641e-01
1.570500573175391545e-01
1.570500573175391545e-01
1.570500573175391545e-01
1.432938479174627466e-01
1.432938479174627466e-01
1.452044325563622562e-01
1.452044325563622562e-01
1.452044325563622562e-01
1.379442109285441420e-01
1.379442109285441420e-01
1.440580817730225394e-01
1.440580817730225394e-01
1.440580817730225394e-01
1.497898356897210681e-01
1.497898356897210681e-01
1.570500573175391545e-01
1.570500573175391545e-01
1.570500573175391545e-01
1.436759648452426430e-01
1.436759648452426430e-01
1.601069927397783810e-01
1.601069927397783810e-01
1.601069927397783810e-01
1.551394726786396727e-01
1.551394726786396727e-01
1.490256018341612476e-01
1.490256018341612476e-01
1.490256018341612476e-01
1.570500573175391545e-01
1.570500573175391545e-01
1.635460450897974760e-01
1.635460450897974760e-01
1.635460450897974760e-01
1.666029805120366747e-01
1.666029805120366747e-01
1.658387466564768820e-01
1.658387466564768820e-01
1.658387466564768820e-01
1.704241497898356938e-01
1.704241497898356938e-01
1.891478792510508100e-01
1.891478792510508100e-01
1.891478792510508100e-01
1.906763469621704232e-01
1.906763469621704232e-01
2.017577378677875566e-01
2.017577378677875566e-01
2.017577378677875566e-01
1.983186855177684338e-01
1.983186855177684338e-01
2.082537256400458503e-01
2.082537256400458503e-01
2.082537256400458503e-01
2.082537256400458503e-01
2.082537256400458503e-01
2.189529996178830595e-01
2.189529996178830595e-01
2.189529996178830595e-01
2.231562858234619751e-01
2.231562858234619751e-01
2.327092090179594952e-01
2.327092090179594952e-01
2.327092090179594952e-01
2.437905999235766008e-01
2.437905999235766008e-01
2.575468093236530365e-01
2.575468093236530365e-01
2.575468093236530365e-01
2.770347726404279731e-01
2.770347726404279731e-01
2.755063049293083877e-01
2.755063049293083877e-01
2.755063049293083877e-01
2.747420710737485394e-01
2.747420710737485394e-01
2.938479174627435797e-01
2.938479174627435797e-01
2.938479174627435797e-01
3.068398930072602226e-01
3.068398930072602226e-01
3.160106992739778464e-01
3.160106992739778464e-01
3.160106992739778464e-01
3.098968284294994491e-01
3.098968284294994491e-01
3.225066870462361401e-01
3.225066870462361401e-01
3.225066870462361401e-01
3.354986625907527831e-01
3.354986625907527831e-01
3.393198318685518022e-01
3.393198318685518022e-01
3.393198318685518022e-01
3.381734810852120576e-01
3.381734810852120576e-01
3.461979365685899923e-01
3.461979365685899923e-01
3.461979365685899923e-01
3.511654566297287006e-01
3.511654566297287006e-01
3.614826136797860134e-01
3.614826136797860134e-01
3.614826136797860134e-01
3.706534199465036372e-01
3.706534199465036372e-01
3.809705769965609501e-01
3.809705769965609501e-01
3.809705769965609501e-01
3.767672907909820346e-01
3.767672907909820346e-01
3.870844478410393474e-01
3.870844478410393474e-01
3.870844478410393474e-01
3.970194879633167639e-01
3.970194879633167639e-01
3.867023309132594511e-01
3.867023309132594511e-01
3.867023309132594511e-01
4.054260603744745950e-01
4.054260603744745950e-01
4.050439434466946986e-01
4.050439434466946986e-01
4.050439434466946986e-01
4.061902942300343877e-01
4.061902942300343877e-01
4.134505158578525297e-01
4.134505158578525297e-01
4.134505158578525297e-01
4.088651127244937178e-01
4.088651127244937178e-01
4.199465036301108234e-01
4.199465036301108234e-01
4.199465036301108234e-01
4.207107374856706161e-01
4.207107374856706161e-01
4.165074512800917006e-01
4.165074512800917006e-01
4.203286205578907198e-01
4.203286205578907198e-01
4.203286205578907198e-01
4.264424914023691171e-01
4.264424914023691171e-01
4.161253343523118042e-01
4.161253343523118042e-01
4.161253343523118042e-01
4.222392051967902016e-01
4.222392051967902016e-01
4.329384791746274108e-01
4.329384791746274108e-01
4.329384791746274108e-01
4.222392051967902016e-01
4.222392051967902016e-01
4.344669468857470518e-01
4.344669468857470518e-01
4.344669468857470518e-01
4.283530760412686544e-01
4.283530760412686544e-01
4.237676729079098426e-01
4.237676729079098426e-01
4.237676729079098426e-01
4.340848299579671554e-01
4.340848299579671554e-01
4.245319067634696353e-01
4.245319067634696353e-01
4.245319067634696353e-01
4.249140236912495316e-01
4.249140236912495316e-01
4.264424914023691171e-01
4.264424914023691171e-01
4.264424914023691171e-01
4.298815437523882399e-01
4.298815437523882399e-01
4.409629346580053455e-01
4.409629346580053455e-01
4.409629346580053455e-01
4.256782575468093244e-01
4.256782575468093244e-01
4.241497898356897389e-01
4.241497898356897389e-01
4.241497898356897389e-01
4.249140236912495316e-01
4.249140236912495316e-01
4.340848299579671554e-01
4.340848299579671554e-01
4.340848299579671554e-01
4.191822697745510307e-01
4.191822697745510307e-01
4.161253343523118042e-01
4.161253343523118042e-01
4.161253343523118042e-01
4.176538020634313897e-01
4.176538020634313897e-01
4.333205961024073627e-01
4.333205961024073627e-01
