1.501719526175009645e-01
1.501719526175009645e-01
1.501719526175009645e-01
1.650745128009170892e-01
1.650745128009170892e-01
1.666029805120366747e-01
1.666029805120366747e-01
1.666029805120366747e-01
1.566679403897592582e-01
1.566679403897592582e-01
1.566679403897592582e-01
1.566679403897592582e-01
1.566679403897592582e-01
1.436759648452426430e-01
1.436759648452426430e-01
1.532288880397401631e-01
1.532288880397401631e-01
1.532288880397401631e-01
1.429117309896828503e-01
1.429117309896828503e-01
1.429117309896828503e-01
1.429117309896828503e-01
1.429117309896828503e-01
1.662208635842567783e-01
1.662208635842567783e-01
1.413832632785632371e-01
1.413832632785632371e-01
1.688956820787160806e-01
1.688956820787160806e-01
1.688956820787160806e-01
1.631639281620175796e-01
1.631639281620175796e-01
1.524646541841803704e-01
1.524646541841803704e-01
1.524646541841803704e-01
1.612533435231180701e-01
1.612533435231180701e-01
1.413832632785632371e-01
1.413832632785632371e-01
1.413832632785632371e-01
1.593427588842185605e-01
1.593427588842185605e-01
1.688956820787160806e-01
1.688956820787160806e-01
1.688956820787160806e-01
1.390905617118838311e-01
1.390905617118838311e-01
1.650745128009170892e-01
1.650745128009170892e-01
1.650745128009170892e-01
1.623996943064577869e-01
1.623996943064577869e-01
1.387084447841039347e-01
1.387084447841039347e-01
1.387084447841039347e-01
1.383263278563240384e-01
1.383263278563240384e-01
1.310661062285059242e-01
1.310661062285059242e-01
1.310661062285059242e-01
1.505540695452808608e-01
1.505540695452808608e-01
1.574321742453190787e-01
1.574321742453190787e-01
1.574321742453190787e-01
1.325945739396255374e-01
1.325945739396255374e-01
1.425296140619029539e-01
1.425296140619029539e-01
1.425296140619029539e-01
1.310661062285059242e-01
1.310661062285059242e-01
1.303018723729461315e-01
1.303018723729461315e-01
1.303018723729461315e-01
1.566679403897592582e-01
1.566679403897592582e-01
1.532288880397401631e-01
1.532288880397401631e-01
1.532288880397401631e-01
1.593427588842185605e-01
1.593427588842185605e-01
1.505540695452808608e-01
1.505540695452808608e-01
1.505540695452808608e-01
1.547573557508597764e-01
1.547573557508597764e-01
1.394726786396637275e-01
1.394726786396637275e-01
1.394726786396637275e-01
1.360336262896446324e-01
1.360336262896446324e-01
1.623996943064577869e-01
1.623996943064577869e-01
1.623996943064577869e-01
1.360336262896446324e-01
1.360336262896446324e-01
1.425296140619029539e-01
1.425296140619029539e-01
1.425296140619029539e-01
1.379442109285441420e-01
1.379442109285441420e-01
1.654566297286969856e-01
1.654566297286969856e-01
1.654566297286969856e-01
1.364157432174245288e-01
1.364157432174245288e-01
1.333588077951853301e-01
1.333588077951853301e-01
1.333588077951853301e-01
1.345051585785250192e-01
1.345051585785250192e-01
1.635460450897974760e-01
1.635460450897974760e-01
1.635460450897974760e-01
1.333588077951853301e-01
1.333588077951853301e-01
1.345051585785250192e-01
1.345051585785250192e-01
1.345051585785250192e-01
1.524646541841803704e-01
1.524646541841803704e-01
1.364157432174245288e-01
1.364157432174245288e-01
1.364157432174245288e-01
1.390905617118838311e-01
1.390905617118838311e-01
1.348872755063049156e-01
1.348872755063049156e-01
1.348872755063049156e-01
1.654566297286969856e-01
1.654566297286969856e-01
1.620175773786778628e-01
1.620175773786778628e-01
1.620175773786778628e-01
1.578142911730989750e-01
1.578142911730989750e-01
1.448223156285823598e-01
1.448223156285823598e-01
1.448223156285823598e-01
1.459686664119220489e-01
1.459686664119220489e-01
1.348872755063049156e-01
1.348872755063049156e-01
1.348872755063049156e-01
1.337409247229652265e-01
1.337409247229652265e-01
1.578142911730989750e-01
1.578142911730989750e-01
1.578142911730989750e-01
1.345051585785250192e-01
1.345051585785250192e-01
1.417653802063431334e-01
1.417653802063431334e-01
1.417653802063431334e-01
1.616354604508979664e-01
1.616354604508979664e-01
1.337409247229652265e-01
1.337409247229652265e-01
1.337409247229652265e-01
1.478792510508215585e-01
1.478792510508215585e-01
1.505540695452808608e-01
1.505540695452808608e-01
1.505540695452808608e-01
1.436759648452426430e-01
1.436759648452426430e-01
1.333588077951853301e-01
1.333588077951853301e-01
1.333588077951853301e-01
1.666029805120366747e-01
1.666029805120366747e-01
1.532288880397401631e-01
1.532288880397401631e-01
1.532288880397401631e-01
1.367978601452044252e-01
1.367978601452044252e-01
1.352693924340848397e-01
1.352693924340848397e-01
1.352693924340848397e-01
1.364157432174245288e-01
1.364157432174245288e-01
1.623996943064577869e-01
1.623996943064577869e-01
1.623996943064577869e-01
1.436759648452426430e-01
1.436759648452426430e-01
1.406190294230034443e-01
1.406190294230034443e-01
1.406190294230034443e-01
1.482613679786014549e-01
1.482613679786014549e-01
1.436759648452426430e-01
1.436759648452426430e-01
1.436759648452426430e-01
1.620175773786778628e-01
1.620175773786778628e-01
1.463507833397019453e-01
1.463507833397019453e-01
1.463507833397019453e-01
1.379442109285441420e-01
1.379442109285441420e-01
1.394726786396637275e-01
1.394726786396637275e-01
1.394726786396637275e-01
1.329766908674054338e-01
1.329766908674054338e-01
1.505540695452808608e-01
1.505540695452808608e-01
1.505540695452808608e-01
1.333588077951853301e-01
1.333588077951853301e-01
1.406190294230034443e-01
1.406190294230034443e-01
1.406190294230034443e-01
1.352693924340848397e-01
1.352693924340848397e-01
1.593427588842185605e-01
1.593427588842185605e-01
1.593427588842185605e-01
1.474971341230416622e-01
1.474971341230416622e-01
1.532288880397401631e-01
1.532288880397401631e-01
1.532288880397401631e-01
1.562858234619793618e-01
1.562858234619793618e-01
1.303018723729461315e-01
1.303018723729461315e-01
1.543752388230798522e-01
1.543752388230798522e-01
1.543752388230798522e-01
1.497898356897210681e-01
1.497898356897210681e-01
1.562858234619793618e-01
1.562858234619793618e-01
1.562858234619793618e-01
1.333588077951853301e-01
1.333588077951853301e-01
1.398547955674436516e-01
1.398547955674436516e-01
1.398547955674436516e-01
1.406190294230034443e-01
1.406190294230034443e-01
1.532288880397401631e-01
1.532288880397401631e-01
1.532288880397401631e-01
1.654566297286969856e-01
1.654566297286969856e-01
1.566679403897592582e-01
1.566679403897592582e-01
1.566679403897592582e-01
1.528467711119602668e-01
1.528467711119602668e-01
1.631639281620175796e-01
1.631639281620175796e-01
1.631639281620175796e-01
1.440580817730225394e-01
1.440580817730225394e-01
1.348872755063049156e-01
1.348872755063049156e-01
1.348872755063049156e-01
1.417653802063431334e-01
1.417653802063431334e-01
1.471150171952617380e-01
1.471150171952617380e-01
1.471150171952617380e-01
1.440580817730225394e-01
1.440580817730225394e-01
1.746274359954146094e-01
1.746274359954146094e-01
1.746274359954146094e-01
1.501719526175009645e-01
1.501719526175009645e-01
1.501719526175009645e-01
1.501719526175009645e-01
1.501719526175009645e-01
1.891478792510508100e-01
1.891478792510508100e-01
1.658387466564768820e-01
1.658387466564768820e-01
1.658387466564768820e-01
1.704241497898356938e-01
1.704241497898356938e-01
1.738632021398547889e-01
1.738632021398547889e-01
1.738632021398547889e-01
1.876194115399312246e-01
1.876194115399312246e-01
2.151318303400840681e-01
2.151318303400840681e-01
2.151318303400840681e-01
2.097821933511654635e-01
2.097821933511654635e-01
2.277416889568207869e-01
2.277416889568207869e-01
2.277416889568207869e-01
2.048146732900267553e-01
2.048146732900267553e-01
2.384409629346579962e-01
2.384409629346579962e-01
2.384409629346579962e-01
2.204814673290026728e-01
2.204814673290026728e-01
2.265953381734810979e-01
2.265953381734810979e-01
2.265953381734810979e-01
2.594573939625525183e-01
2.594573939625525183e-01
2.483760030569354127e-01
2.483760030569354127e-01
2.483760030569354127e-01
2.648070309514711229e-01
2.648070309514711229e-01
2.506687046236148464e-01
2.506687046236148464e-01
2.506687046236148464e-01
2.709209017959495758e-01
2.709209017959495758e-01
2.724493695070691612e-01
2.724493695070691612e-01
2.724493695070691612e-01
2.850592281238059078e-01
2.850592281238059078e-01
2.946121513183034279e-01
2.946121513183034279e-01
2.946121513183034279e-01
2.915552158960642015e-01
2.915552158960642015e-01
2.965227359572029098e-01
2.965227359572029098e-01
2.965227359572029098e-01
2.946121513183034279e-01
2.946121513183034279e-01
2.999617883072220326e-01
2.999617883072220326e-01
2.999617883072220326e-01
3.324417271685135566e-01
3.324417271685135566e-01
3.312953763851738676e-01
3.312953763851738676e-01
3.312953763851738676e-01
3.144822315628582610e-01
3.144822315628582610e-01
3.221245701184562438e-01
3.221245701184562438e-01
3.221245701184562438e-01
3.473442873519296814e-01
3.473442873519296814e-01
3.412304165074512841e-01
3.412304165074512841e-01
3.412304165074512841e-01
3.530760412686281824e-01
3.530760412686281824e-01
3.404661826518914913e-01
3.404661826518914913e-01
3.404661826518914913e-01
3.408482995796713877e-01
3.408482995796713877e-01
3.691249522353840518e-01
3.691249522353840518e-01
3.691249522353840518e-01
3.419946503630110768e-01
3.419946503630110768e-01
3.492548719908292187e-01
3.492548719908292187e-01
3.492548719908292187e-01
3.672143675964845144e-01
3.672143675964845144e-01
3.798242262132212610e-01
3.798242262132212610e-01
3.798242262132212610e-01
3.760030569354222418e-01
3.760030569354222418e-01
3.737103553687428081e-01
3.737103553687428081e-01
3.737103553687428081e-01
3.748567061520825527e-01
3.748567061520825527e-01
3.561329766908674088e-01
3.561329766908674088e-01
3.561329766908674088e-01
3.771494077187619309e-01
3.771494077187619309e-01
3.645395491020252399e-01
3.645395491020252399e-01
3.645395491020252399e-01
3.591899121131066352e-01
3.591899121131066352e-01
3.568972105464272015e-01
3.568972105464272015e-01
3.568972105464272015e-01
3.763851738632021382e-01
3.763851738632021382e-01
3.912877340466182630e-01
3.912877340466182630e-01
3.912877340466182630e-01
3.695070691631639481e-01
3.695070691631639481e-01
3.645395491020252399e-01
3.645395491020252399e-01
3.645395491020252399e-01
3.779136415743217237e-01
3.779136415743217237e-01
3.599541459686664280e-01
3.599541459686664280e-01
3.599541459686664280e-01
3.763851738632021382e-01
3.763851738632021382e-01
3.767672907909820346e-01
3.767672907909820346e-01
3.767672907909820346e-01
3.798242262132212610e-01
3.798242262132212610e-01
3.599541459686664280e-01
3.599541459686664280e-01
3.599541459686664280e-01
3.740924722965227600e-01
3.740924722965227600e-01
3.565150936186473052e-01
3.565150936186473052e-01
3.565150936186473052e-01
3.717997707298433263e-01
3.717997707298433263e-01
3.683607183798242035e-01
3.683607183798242035e-01
3.683607183798242035e-01
3.786778754298815164e-01
3.786778754298815164e-01
3.664501337409247217e-01
3.664501337409247217e-01
3.664501337409247217e-01
3.504012227741689078e-01
3.504012227741689078e-01
3.656858998853649290e-01
3.656858998853649290e-01
3.584256782575467870e-01
3.584256782575467870e-01
3.584256782575467870e-01
3.538402751241879751e-01
3.538402751241879751e-01
3.504012227741689078e-01
3.504012227741689078e-01
3.504012227741689078e-01
3.496369889186091151e-01
3.496369889186091151e-01
3.446694688574704069e-01
3.446694688574704069e-01
3.446694688574704069e-01
3.477264042797095778e-01
3.477264042797095778e-01
3.664501337409247217e-01
3.664501337409247217e-01
3.664501337409247217e-01
3.477264042797095778e-01
3.477264042797095778e-01
3.351165456629728867e-01
3.351165456629728867e-01
3.351165456629728867e-01
3.500191058463890115e-01
3.500191058463890115e-01
3.309132594573939712e-01
3.309132594573939712e-01
3.309132594573939712e-01
3.290026748184944339e-01
3.290026748184944339e-01
3.270920901795949520e-01
3.270920901795949520e-01
3.270920901795949520e-01
3.366450133740924722e-01
3.366450133740924722e-01
3.293847917462743857e-01
3.293847917462743857e-01
3.293847917462743857e-01
3.458158196408100959e-01
3.458158196408100959e-01
3.358807795185326794e-01
3.358807795185326794e-01
3.358807795185326794e-01
3.408482995796713877e-01
3.408482995796713877e-01
3.247993886129155738e-01
3.247993886129155738e-01
3.247993886129155738e-01
3.171570500573175355e-01
3.171570500573175355e-01
3.163928162017577428e-01
3.163928162017577428e-01
3.163928162017577428e-01
3.060756591517004299e-01
3.060756591517004299e-01
3.225066870462361401e-01
3.225066870462361401e-01
3.225066870462361401e-01
3.209782193351165547e-01
3.209782193351165547e-01
2.923194497516239942e-01
2.923194497516239942e-01
2.923194497516239942e-01
3.137179977072984127e-01
3.137179977072984127e-01
3.118074130683989309e-01
3.118074130683989309e-01
3.118074130683989309e-01
2.965227359572029098e-01
2.965227359572029098e-01
2.915552158960642015e-01
2.915552158960642015e-01
2.915552158960642015e-01
3.091325945739396008e-01
3.091325945739396008e-01
2.762705387848681804e-01
2.762705387848681804e-01
2.762705387848681804e-01
2.927015666794038906e-01
2.927015666794038906e-01
2.907909820405044088e-01
2.907909820405044088e-01
2.907909820405044088e-01
2.732136033626289540e-01
2.732136033626289540e-01
2.766526557126480768e-01
2.766526557126480768e-01
2.766526557126480768e-01
2.659533817348108675e-01
2.659533817348108675e-01
2.938479174627435797e-01
2.938479174627435797e-01
2.938479174627435797e-01
2.869698127627053896e-01
2.869698127627053896e-01
2.827665265571264741e-01
2.827665265571264741e-01
2.827665265571264741e-01
2.678639663737103493e-01
2.678639663737103493e-01
2.697745510126098312e-01
2.697745510126098312e-01
2.697745510126098312e-01
2.499044707680550259e-01
2.499044707680550259e-01
2.472296522735957236e-01
2.472296522735957236e-01
2.472296522735957236e-01
2.617500955292319520e-01
2.617500955292319520e-01
2.510508215513947428e-01
2.510508215513947428e-01
2.510508215513947428e-01
2.609858616736721593e-01
2.609858616736721593e-01
2.682460833014902457e-01
2.682460833014902457e-01
2.682460833014902457e-01
2.434084829957967044e-01
2.434084829957967044e-01
2.556362246847535546e-01
2.556362246847535546e-01
2.556362246847535546e-01
2.617500955292319520e-01
2.617500955292319520e-01
2.468475353458158272e-01
2.468475353458158272e-01
2.468475353458158272e-01
2.334734428735192879e-01
2.334734428735192879e-01
2.445548337791364213e-01
2.445548337791364213e-01
2.445548337791364213e-01
2.277416889568207869e-01
2.277416889568207869e-01
2.369124952235384107e-01
2.369124952235384107e-01
2.369124952235384107e-01
2.502865876958349500e-01
2.502865876958349500e-01
2.537256400458540173e-01
2.537256400458540173e-01
2.537256400458540173e-01
2.269774551012609942e-01
2.269774551012609942e-01
2.281238058846006833e-01
2.281238058846006833e-01
2.281238058846006833e-01
2.514329384791746391e-01
2.514329384791746391e-01
2.483760030569354127e-01
2.483760030569354127e-01
2.483760030569354127e-01
2.307986243790599856e-01
2.307986243790599856e-01
2.476117692013756200e-01
2.476117692013756200e-01
2.476117692013756200e-01
2.319449751623997025e-01
2.319449751623997025e-01
2.491402369124952332e-01
2.491402369124952332e-01
2.491402369124952332e-01
2.204814673290026728e-01
2.204814673290026728e-01
2.277416889568207869e-01
2.277416889568207869e-01
2.277416889568207869e-01
2.376767290790982035e-01
2.376767290790982035e-01
2.479938861291555163e-01
2.479938861291555163e-01
2.479938861291555163e-01
2.437905999235766008e-01
2.437905999235766008e-01
2.369124952235384107e-01
2.369124952235384107e-01
2.369124952235384107e-01
2.174245319067634741e-01
2.174245319067634741e-01
2.174245319067634741e-01
2.174245319067634741e-01
2.174245319067634741e-01
2.426442491402369117e-01
2.426442491402369117e-01
2.437905999235766008e-01
2.437905999235766008e-01
2.437905999235766008e-01
2.212457011845624655e-01
2.212457011845624655e-01
2.235384027512418714e-01
2.235384027512418714e-01
2.235384027512418714e-01
2.361482613679785902e-01
2.361482613679785902e-01
2.158960641956438609e-01
2.158960641956438609e-01
2.158960641956438609e-01
2.086358425678257467e-01
2.086358425678257467e-01
2.273595720290408906e-01
2.273595720290408906e-01
2.063431410011463407e-01
2.063431410011463407e-01
2.063431410011463407e-01
2.174245319067634741e-01
2.174245319067634741e-01
2.369124952235384107e-01
2.369124952235384107e-01
2.369124952235384107e-01
2.258311043179212774e-01
2.258311043179212774e-01
2.082537256400458503e-01
2.082537256400458503e-01
2.082537256400458503e-01
2.369124952235384107e-01
2.369124952235384107e-01
2.346197936568590048e-01
2.346197936568590048e-01
2.346197936568590048e-01
2.361482613679785902e-01
2.361482613679785902e-01
2.327092090179594952e-01
2.327092090179594952e-01
2.327092090179594952e-01
2.353840275124187975e-01
2.353840275124187975e-01
2.124570118456247658e-01
2.124570118456247658e-01
2.124570118456247658e-01
2.032862055789071420e-01
2.032862055789071420e-01
2.067252579289262648e-01
2.067252579289262648e-01
2.067252579289262648e-01
2.082537256400458503e-01
2.082537256400458503e-01
2.044325563622468589e-01
2.044325563622468589e-01
2.044325563622468589e-01
2.036683225066870384e-01
2.036683225066870384e-01
2.227741688956820787e-01
2.227741688956820787e-01
2.227741688956820787e-01
2.258311043179212774e-01
2.258311043179212774e-01
2.216278181123423896e-01
2.216278181123423896e-01
2.216278181123423896e-01
2.277416889568207869e-01
2.277416889568207869e-01
1.990829193733282265e-01
1.990829193733282265e-01
1.990829193733282265e-01
1.933511654566297255e-01
1.933511654566297255e-01
2.235384027512418714e-01
2.235384027512418714e-01
2.235384027512418714e-01
2.189529996178830595e-01
2.189529996178830595e-01
1.937332823844096219e-01
1.937332823844096219e-01
1.937332823844096219e-01
2.029040886511272457e-01
2.029040886511272457e-01
2.128391287734046622e-01
2.128391287734046622e-01
2.128391287734046622e-01
2.113106610622850490e-01
2.113106610622850490e-01
1.971723347344287447e-01
1.971723347344287447e-01
1.971723347344287447e-01
1.952617500955292351e-01
1.952617500955292351e-01
2.216278181123423896e-01
2.216278181123423896e-01
2.216278181123423896e-01
2.006113870844478397e-01
2.006113870844478397e-01
2.170424149789835777e-01
2.170424149789835777e-01
2.170424149789835777e-01
1.887657623232709136e-01
1.887657623232709136e-01
1.860909438288116113e-01
1.860909438288116113e-01
1.860909438288116113e-01
2.174245319067634741e-01
2.174245319067634741e-01
1.826518914787925163e-01
1.826518914787925163e-01
1.826518914787925163e-01
2.101643102789453599e-01
2.101643102789453599e-01
1.902942300343905269e-01
1.902942300343905269e-01
1.902942300343905269e-01
1.902942300343905269e-01
1.902942300343905269e-01
2.101643102789453599e-01
2.101643102789453599e-01
2.101643102789453599e-01
1.784486052732136008e-01
1.784486052732136008e-01
1.803591899121131104e-01
1.803591899121131104e-01
1.803591899121131104e-01
1.998471532288880470e-01
1.998471532288880470e-01
1.910584638899503196e-01
1.910584638899503196e-01
1.910584638899503196e-01
2.040504394344669348e-01
2.040504394344669348e-01
1.830340084065724127e-01
1.830340084065724127e-01
1.830340084065724127e-01
1.914405808177302160e-01
1.914405808177302160e-01
1.952617500955292351e-01
1.952617500955292351e-01
1.952617500955292351e-01
1.818876576232326958e-01
1.818876576232326958e-01
1.715705005731753829e-01
1.715705005731753829e-01
1.715705005731753829e-01
1.730989682842949962e-01
1.730989682842949962e-01
1.769201375620939876e-01
1.769201375620939876e-01
1.769201375620939876e-01
1.845624761176920259e-01
1.845624761176920259e-01
1.914405808177302160e-01
1.914405808177302160e-01
1.914405808177302160e-01
1.788307222009934971e-01
1.788307222009934971e-01
1.799770729843332140e-01
1.799770729843332140e-01
1.799770729843332140e-01
1.811234237676729031e-01
1.811234237676729031e-01
1.895299961788307341e-01
1.895299961788307341e-01
1.895299961788307341e-01
1.654566297286969856e-01
1.654566297286969856e-01
1.765380206343140912e-01
1.765380206343140912e-01
1.765380206343140912e-01
1.933511654566297255e-01
1.933511654566297255e-01
1.734810852120748925e-01
1.734810852120748925e-01
1.734810852120748925e-01
1.761559037065341948e-01
1.761559037065341948e-01
1.906763469621704232e-01
1.906763469621704232e-01
1.906763469621704232e-01
1.601069927397783810e-01
1.601069927397783810e-01
1.795949560565533176e-01
1.795949560565533176e-01
1.795949560565533176e-01
1.818876576232326958e-01
1.818876576232326958e-01
1.776843714176538080e-01
1.776843714176538080e-01
1.776843714176538080e-01
1.826518914787925163e-01
1.826518914787925163e-01
1.715705005731753829e-01
1.715705005731753829e-01
1.715705005731753829e-01
1.643102789453572687e-01
1.643102789453572687e-01
1.730989682842949962e-01
1.730989682842949962e-01
1.730989682842949962e-01
1.578142911730989750e-01
1.578142911730989750e-01
1.853267099732518186e-01
1.853267099732518186e-01
1.853267099732518186e-01
1.532288880397401631e-01
1.532288880397401631e-01
1.627818112342376833e-01
1.627818112342376833e-01
1.627818112342376833e-01
1.788307222009934971e-01
1.788307222009934971e-01
1.765380206343140912e-01
1.765380206343140912e-01
1.765380206343140912e-01
1.654566297286969856e-01
1.654566297286969856e-01
1.631639281620175796e-01
1.631639281620175796e-01
1.631639281620175796e-01
1.601069927397783810e-01
1.601069927397783810e-01
1.646923958731371929e-01
1.646923958731371929e-01
1.780664883454337044e-01
1.780664883454337044e-01
1.780664883454337044e-01
1.654566297286969856e-01
1.654566297286969856e-01
1.673672143675964952e-01
1.673672143675964952e-01
1.673672143675964952e-01
1.448223156285823598e-01
1.448223156285823598e-01
1.501719526175009645e-01
1.501719526175009645e-01
1.501719526175009645e-01
1.467329002674818417e-01
1.467329002674818417e-01
1.543752388230798522e-01
1.543752388230798522e-01
1.543752388230798522e-01
1.757737867787542985e-01
1.757737867787542985e-01
1.536110049675200595e-01
1.536110049675200595e-01
1.536110049675200595e-01
1.727168513565150998e-01
1.727168513565150998e-01
1.658387466564768820e-01
1.658387466564768820e-01
1.658387466564768820e-01
1.601069927397783810e-01
1.601069927397783810e-01
1.478792510508215585e-01
1.478792510508215585e-01
1.478792510508215585e-01
1.478792510508215585e-01
1.478792510508215585e-01
1.463507833397019453e-01
1.463507833397019453e-01
1.463507833397019453e-01
1.513183034008406536e-01
1.513183034008406536e-01
1.757737867787542985e-01
1.757737867787542985e-01
1.757737867787542985e-01
1.509361864730607572e-01
1.509361864730607572e-01
1.440580817730225394e-01
1.440580817730225394e-01
1.440580817730225394e-01
1.700420328620557975e-01
1.700420328620557975e-01
1.459686664119220489e-01
1.459686664119220489e-01
1.459686664119220489e-01
1.746274359954146094e-01
1.746274359954146094e-01
1.474971341230416622e-01
1.474971341230416622e-01
1.474971341230416622e-01
1.509361864730607572e-01
1.509361864730607572e-01
1.704241497898356938e-01
1.704241497898356938e-01
1.704241497898356938e-01
1.402369124952235480e-01
1.402369124952235480e-01
1.494077187619411440e-01
1.494077187619411440e-01
1.494077187619411440e-01
1.440580817730225394e-01
1.440580817730225394e-01
1.730989682842949962e-01
1.730989682842949962e-01
1.730989682842949962e-01
1.601069927397783810e-01
1.601069927397783810e-01
1.708062667176155902e-01
1.708062667176155902e-01
1.708062667176155902e-01
1.509361864730607572e-01
1.509361864730607572e-01
1.746274359954146094e-01
1.746274359954146094e-01
1.746274359954146094e-01
1.478792510508215585e-01
1.478792510508215585e-01
1.570500573175391545e-01
1.570500573175391545e-01
1.570500573175391545e-01
1.494077187619411440e-01
1.494077187619411440e-01
1.520825372564004463e-01
1.520825372564004463e-01
1.520825372564004463e-01
1.455865494841421526e-01
1.455865494841421526e-01
1.478792510508215585e-01
1.478792510508215585e-01
1.478792510508215585e-01
1.742453190676346853e-01
1.742453190676346853e-01
1.486434849063813513e-01
1.486434849063813513e-01
1.486434849063813513e-01
1.574321742453190787e-01
1.574321742453190787e-01
1.436759648452426430e-01
1.436759648452426430e-01
1.436759648452426430e-01
1.551394726786396727e-01
1.551394726786396727e-01
1.734810852120748925e-01
1.734810852120748925e-01
1.734810852120748925e-01
1.685135651509361843e-01
1.685135651509361843e-01
1.723347344287352034e-01
1.723347344287352034e-01
1.723347344287352034e-01
1.662208635842567783e-01
1.662208635842567783e-01
1.467329002674818417e-01
1.467329002674818417e-01
1.467329002674818417e-01
1.410011463507833407e-01
1.410011463507833407e-01
1.688956820787160806e-01
1.688956820787160806e-01
1.688956820787160806e-01
1.471150171952617380e-01
1.471150171952617380e-01
1.612533435231180701e-01
1.612533435231180701e-01
1.612533435231180701e-01
1.692777990064959770e-01
1.692777990064959770e-01
1.421474971341230298e-01
1.421474971341230298e-01
1.421474971341230298e-01
1.474971341230416622e-01
1.474971341230416622e-01
1.444401987008024357e-01
1.444401987008024357e-01
1.444401987008024357e-01
1.417653802063431334e-01
1.417653802063431334e-01
1.585785250286587678e-01
1.585785250286587678e-01
1.585785250286587678e-01
1.379442109285441420e-01
1.379442109285441420e-01
1.658387466564768820e-01
1.658387466564768820e-01
1.658387466564768820e-01
1.593427588842185605e-01
1.593427588842185605e-01
1.692777990064959770e-01
1.692777990064959770e-01
1.692777990064959770e-01
1.379442109285441420e-01
1.379442109285441420e-01
1.593427588842185605e-01
1.593427588842185605e-01
1.593427588842185605e-01
1.364157432174245288e-01
1.364157432174245288e-01
1.448223156285823598e-01
1.448223156285823598e-01
1.448223156285823598e-01
1.597248758119984846e-01
1.597248758119984846e-01
1.719526175009552793e-01
1.719526175009552793e-01
1.719526175009552793e-01
1.509361864730607572e-01
1.509361864730607572e-01
1.555215896064195691e-01
1.555215896064195691e-01
1.555215896064195691e-01
1.364157432174245288e-01
1.364157432174245288e-01
1.352693924340848397e-01
1.352693924340848397e-01
1.352693924340848397e-01
1.463507833397019453e-01
1.463507833397019453e-01
1.574321742453190787e-01
1.574321742453190787e-01
1.574321742453190787e-01
1.593427588842185605e-01
1.593427588842185605e-01
1.455865494841421526e-01
1.455865494841421526e-01
1.455865494841421526e-01
1.643102789453572687e-01
1.643102789453572687e-01
1.402369124952235480e-01
1.402369124952235480e-01
1.402369124952235480e-01
1.455865494841421526e-01
1.455865494841421526e-01
1.666029805120366747e-01
1.666029805120366747e-01
1.543752388230798522e-01
1.543752388230798522e-01
1.543752388230798522e-01
1.589606419564386641e-01
1.589606419564386641e-01
1.738632021398547889e-01
1.738632021398547889e-01
1.738632021398547889e-01
1.727168513565150998e-01
1.727168513565150998e-01
1.459686664119220489e-01
1.459686664119220489e-01
1.459686664119220489e-01
1.559037065341994654e-01
1.559037065341994654e-01
1.631639281620175796e-01
1.631639281620175796e-01
1.631639281620175796e-01
1.574321742453190787e-01
1.574321742453190787e-01
1.708062667176155902e-01
1.708062667176155902e-01
1.708062667176155902e-01
1.899121131066106305e-01
1.899121131066106305e-01
1.692777990064959770e-01
1.692777990064959770e-01
1.692777990064959770e-01
1.765380206343140912e-01
1.765380206343140912e-01
1.834161253343523090e-01
1.834161253343523090e-01
1.834161253343523090e-01
2.006113870844478397e-01
2.006113870844478397e-01
2.032862055789071420e-01
2.032862055789071420e-01
2.032862055789071420e-01
2.170424149789835777e-01
2.170424149789835777e-01
2.013756209400076325e-01
2.013756209400076325e-01
2.013756209400076325e-01
2.051967902178066516e-01
2.051967902178066516e-01
2.158960641956438609e-01
2.158960641956438609e-01
2.158960641956438609e-01
2.204814673290026728e-01
2.204814673290026728e-01
2.541077569736339137e-01
2.541077569736339137e-01
2.541077569736339137e-01
2.449369507069163177e-01
2.449369507069163177e-01
2.590752770347726219e-01
2.590752770347726219e-01
2.590752770347726219e-01
2.422621322124570153e-01
2.422621322124570153e-01
2.755063049293083877e-01
2.755063049293083877e-01
2.755063049293083877e-01
2.858234619793657005e-01
2.858234619793657005e-01
2.644249140236912266e-01
2.644249140236912266e-01
2.644249140236912266e-01
2.728314864348490576e-01
2.728314864348490576e-01
3.049293083683607408e-01
3.049293083683607408e-01
3.049293083683607408e-01
2.858234619793657005e-01
2.858234619793657005e-01
2.869698127627053896e-01
2.869698127627053896e-01
2.869698127627053896e-01
2.980512036683224952e-01
2.980512036683224952e-01
3.110431792128391382e-01
3.110431792128391382e-01
3.110431792128391382e-01
3.183034008406572246e-01
3.183034008406572246e-01
3.152464654184180537e-01
3.152464654184180537e-01
3.152464654184180537e-01
3.175391669850974319e-01
3.175391669850974319e-01
3.251815055406954702e-01
3.251815055406954702e-01
3.251815055406954702e-01
3.175391669850974319e-01
3.175391669850974319e-01
3.416125334352311804e-01
3.416125334352311804e-01
3.416125334352311804e-01
3.282384409629346411e-01
3.282384409629346411e-01
3.309132594573939712e-01
3.309132594573939712e-01
3.309132594573939712e-01
3.347344287351929903e-01
3.347344287351929903e-01
3.446694688574704069e-01
3.446694688574704069e-01
3.446694688574704069e-01
3.431410011463507659e-01
3.431410011463507659e-01
3.519296904852884933e-01
3.519296904852884933e-01
3.519296904852884933e-01
3.473442873519296814e-01
3.473442873519296814e-01
3.664501337409247217e-01
3.664501337409247217e-01
3.664501337409247217e-01
3.805884600687810537e-01
3.805884600687810537e-01
3.821169277799006392e-01
3.821169277799006392e-01
3.821169277799006392e-01
3.817348108521207428e-01
3.817348108521207428e-01
3.855559801299197620e-01
3.855559801299197620e-01
3.855559801299197620e-01
3.794421092854413646e-01
3.794421092854413646e-01
3.855559801299197620e-01
3.855559801299197620e-01
3.855559801299197620e-01
3.691249522353840518e-01
3.691249522353840518e-01
3.779136415743217237e-01
3.779136415743217237e-01
3.779136415743217237e-01
3.664501337409247217e-01
3.664501337409247217e-01
3.645395491020252399e-01
3.645395491020252399e-01
3.645395491020252399e-01
3.802063431410011574e-01
3.802063431410011574e-01
3.779136415743217237e-01
3.779136415743217237e-01
3.779136415743217237e-01
3.737103553687428081e-01
3.737103553687428081e-01
3.798242262132212610e-01
3.798242262132212610e-01
3.798242262132212610e-01
3.591899121131066352e-01
3.591899121131066352e-01
3.618647306075659098e-01
3.618647306075659098e-01
3.618647306075659098e-01
3.855559801299197620e-01
3.855559801299197620e-01
3.580435613297668906e-01
3.580435613297668906e-01
3.580435613297668906e-01
3.790599923576614683e-01
3.790599923576614683e-01
3.775315246465418273e-01
3.775315246465418273e-01
3.775315246465418273e-01
3.656858998853649290e-01
3.656858998853649290e-01
3.576614444019869943e-01
3.576614444019869943e-01
3.576614444019869943e-01
3.683607183798242035e-01
3.683607183798242035e-01
3.492548719908292187e-01
3.492548719908292187e-01
3.492548719908292187e-01
3.695070691631639481e-01
3.695070691631639481e-01
3.675964845242644108e-01
3.675964845242644108e-01
3.675964845242644108e-01
3.565150936186473052e-01
3.565150936186473052e-01
3.576614444019869943e-01
3.576614444019869943e-01
3.576614444019869943e-01
3.691249522353840518e-01
3.691249522353840518e-01
3.431410011463507659e-01
3.431410011463507659e-01
3.431410011463507659e-01
3.687428353076040999e-01
3.687428353076040999e-01
3.565150936186473052e-01
3.565150936186473052e-01
3.565150936186473052e-01
3.653037829575850326e-01
3.653037829575850326e-01
3.370271303018723685e-01
3.370271303018723685e-01
3.412304165074512841e-01
3.412304165074512841e-01
3.412304165074512841e-01
3.370271303018723685e-01
3.370271303018723685e-01
3.404661826518914913e-01
3.404661826518914913e-01
3.404661826518914913e-01
3.439052350019105586e-01
3.439052350019105586e-01
3.580435613297668906e-01
3.580435613297668906e-01
3.580435613297668906e-01
3.332059610240733494e-01
3.332059610240733494e-01
3.263278563240351593e-01
3.263278563240351593e-01
3.263278563240351593e-01
3.393198318685518022e-01
3.393198318685518022e-01
3.270920901795949520e-01
3.270920901795949520e-01
3.270920901795949520e-01
3.454337027130301996e-01
3.454337027130301996e-01
3.129537638517386200e-01
3.129537638517386200e-01
3.129537638517386200e-01
3.186855177684371210e-01
3.186855177684371210e-01
3.274742071073748484e-01
3.274742071073748484e-01
3.274742071073748484e-01
3.362628964463125758e-01
3.362628964463125758e-01
3.328238440962934530e-01
3.328238440962934530e-01
3.328238440962934530e-01
3.022544898739014108e-01
3.022544898739014108e-01
2.961406190294230134e-01
2.961406190294230134e-01
2.961406190294230134e-01
2.946121513183034279e-01
2.946121513183034279e-01
2.946121513183034279e-01
2.946121513183034279e-01
2.946121513183034279e-01
3.114252961406190345e-01
3.114252961406190345e-01
3.148643484906381573e-01
3.148643484906381573e-01
3.148643484906381573e-01
3.041650745128008926e-01
3.041650745128008926e-01
2.862055789071455969e-01
2.862055789071455969e-01
2.862055789071455969e-01
2.991975544516621843e-01
2.991975544516621843e-01
2.873519296904852860e-01
2.873519296904852860e-01
2.873519296904852860e-01
2.842949942682460596e-01
2.842949942682460596e-01
2.904088651127245124e-01
2.904088651127245124e-01
2.904088651127245124e-01
2.724493695070691612e-01
2.724493695070691612e-01
2.846771111960260114e-01
2.846771111960260114e-01
2.846771111960260114e-01
2.564004585403133474e-01
2.564004585403133474e-01
2.865876958349254933e-01
2.865876958349254933e-01
2.865876958349254933e-01
2.571646923958731401e-01
2.571646923958731401e-01
2.804738249904470959e-01
2.804738249904470959e-01
2.804738249904470959e-01
2.705387848681696794e-01
2.705387848681696794e-01
2.491402369124952332e-01
2.491402369124952332e-01
2.491402369124952332e-01
2.739778372181887467e-01
2.739778372181887467e-01
2.693924340848299348e-01
2.693924340848299348e-01
2.693924340848299348e-01
2.628964463125716411e-01
2.628964463125716411e-01
2.644249140236912266e-01
2.644249140236912266e-01
2.644249140236912266e-01
2.361482613679785902e-01
2.361482613679785902e-01
2.625143293847917447e-01
2.625143293847917447e-01
2.625143293847917447e-01
2.628964463125716411e-01
2.628964463125716411e-01
2.330913259457393916e-01
2.330913259457393916e-01
2.330913259457393916e-01
2.330913259457393916e-01
2.330913259457393916e-01
2.525792892625143282e-01
2.525792892625143282e-01
2.525792892625143282e-01
2.583110431792128292e-01
2.583110431792128292e-01
2.399694306457776094e-01
2.399694306457776094e-01
2.399694306457776094e-01
2.311807413068398820e-01
2.311807413068398820e-01
2.430263660680168081e-01
2.430263660680168081e-01
2.430263660680168081e-01
2.277416889568207869e-01
2.277416889568207869e-01
2.243026366068016919e-01
2.243026366068016919e-01
2.243026366068016919e-01
2.529614061902942246e-01
2.529614061902942246e-01
2.388230798624378926e-01
2.388230798624378926e-01
2.388230798624378926e-01
2.200993504012227764e-01
2.200993504012227764e-01
2.483760030569354127e-01
2.483760030569354127e-01
2.483760030569354127e-01
2.296522735957202965e-01
2.296522735957202965e-01
2.422621322124570153e-01
2.422621322124570153e-01
2.422621322124570153e-01
2.330913259457393916e-01
2.330913259457393916e-01
2.223920519679021823e-01
2.223920519679021823e-01
2.223920519679021823e-01
2.487581199847153091e-01
2.487581199847153091e-01
2.407336645013374021e-01
2.407336645013374021e-01
2.407336645013374021e-01
2.411157814291172985e-01
2.411157814291172985e-01
2.407336645013374021e-01
2.407336645013374021e-01
2.407336645013374021e-01
2.281238058846006833e-01
2.281238058846006833e-01
2.399694306457776094e-01
2.399694306457776094e-01
2.399694306457776094e-01
2.441727168513565249e-01
2.441727168513565249e-01
2.307986243790599856e-01
2.307986243790599856e-01
2.307986243790599856e-01
2.243026366068016919e-01
2.243026366068016919e-01
2.128391287734046622e-01
2.128391287734046622e-01
2.128391287734046622e-01
2.181887657623232668e-01
2.181887657623232668e-01
2.189529996178830595e-01
2.189529996178830595e-01
2.189529996178830595e-01
2.143675964845242754e-01
2.143675964845242754e-01
2.357661444401986939e-01
2.357661444401986939e-01
2.357661444401986939e-01
2.216278181123423896e-01
2.216278181123423896e-01
2.128391287734046622e-01
2.128391287734046622e-01
2.128391287734046622e-01
2.166602980512036813e-01
2.166602980512036813e-01
2.250668704623614846e-01
2.250668704623614846e-01
2.250668704623614846e-01
2.407336645013374021e-01
2.407336645013374021e-01
2.369124952235384107e-01
2.369124952235384107e-01
2.369124952235384107e-01
2.223920519679021823e-01
2.223920519679021823e-01
2.113106610622850490e-01
2.113106610622850490e-01
2.113106610622850490e-01
2.090179594956056430e-01
2.090179594956056430e-01
2.353840275124187975e-01
2.353840275124187975e-01
2.162781811234237572e-01
2.162781811234237572e-01
2.162781811234237572e-01
2.357661444401986939e-01
2.357661444401986939e-01
2.372946121513183071e-01
2.372946121513183071e-01
2.372946121513183071e-01
2.094000764233855671e-01
2.094000764233855671e-01
2.189529996178830595e-01
2.189529996178830595e-01
2.189529996178830595e-01
2.059610240733664444e-01
2.059610240733664444e-01
2.346197936568590048e-01
2.346197936568590048e-01
2.346197936568590048e-01
2.223920519679021823e-01
2.223920519679021823e-01
2.334734428735192879e-01
2.334734428735192879e-01
2.334734428735192879e-01
2.189529996178830595e-01
2.189529996178830595e-01
2.051967902178066516e-01
2.051967902178066516e-01
2.051967902178066516e-01
2.158960641956438609e-01
2.158960641956438609e-01
2.120748949178448695e-01
2.120748949178448695e-01
2.120748949178448695e-01
2.036683225066870384e-01
2.036683225066870384e-01
2.051967902178066516e-01
2.051967902178066516e-01
2.051967902178066516e-01
2.258311043179212774e-01
2.258311043179212774e-01
2.105464272067252562e-01
2.105464272067252562e-01
2.105464272067252562e-01
2.277416889568207869e-01
2.277416889568207869e-01
1.987008024455483302e-01
1.987008024455483302e-01
1.987008024455483302e-01
1.933511654566297255e-01
1.933511654566297255e-01
1.929690485288498292e-01
1.929690485288498292e-01
1.929690485288498292e-01
2.086358425678257467e-01
2.086358425678257467e-01
2.082537256400458503e-01
2.082537256400458503e-01
2.082537256400458503e-01
1.933511654566297255e-01
1.933511654566297255e-01
2.158960641956438609e-01
2.158960641956438609e-01
2.158960641956438609e-01
1.948796331677493388e-01
1.948796331677493388e-01
2.158960641956438609e-01
2.158960641956438609e-01
2.158960641956438609e-01
2.116927779900649731e-01
2.116927779900649731e-01
1.987008024455483302e-01
1.987008024455483302e-01
1.987008024455483302e-01
1.876194115399312246e-01
1.876194115399312246e-01
1.887657623232709136e-01
1.887657623232709136e-01
1.887657623232709136e-01
1.990829193733282265e-01
1.990829193733282265e-01
1.971723347344287447e-01
1.971723347344287447e-01
1.971723347344287447e-01
1.933511654566297255e-01
1.933511654566297255e-01
1.868551776843714041e-01
1.868551776843714041e-01
1.868551776843714041e-01
1.883836453954910173e-01
1.883836453954910173e-01
2.013756209400076325e-01
2.013756209400076325e-01
2.013756209400076325e-01
1.967902178066488483e-01
1.967902178066488483e-01
1.895299961788307341e-01
1.895299961788307341e-01
1.895299961788307341e-01
1.975544516622086411e-01
1.975544516622086411e-01
1.994650363011081506e-01
1.994650363011081506e-01
1.994650363011081506e-01
1.925869316010699328e-01
1.925869316010699328e-01
1.742453190676346853e-01
1.742453190676346853e-01
1.742453190676346853e-01
1.818876576232326958e-01
1.818876576232326958e-01
1.975544516622086411e-01
1.975544516622086411e-01
1.975544516622086411e-01
1.704241497898356938e-01
1.704241497898356938e-01
1.933511654566297255e-01
1.933511654566297255e-01
1.933511654566297255e-01
1.677493312953763915e-01
1.677493312953763915e-01
1.761559037065341948e-01
1.761559037065341948e-01
1.761559037065341948e-01
1.700420328620557975e-01
1.700420328620557975e-01
1.807413068398930067e-01
1.807413068398930067e-01
1.807413068398930067e-01
1.933511654566297255e-01
1.933511654566297255e-01
1.944975162399694424e-01
1.944975162399694424e-01
1.944975162399694424e-01
1.906763469621704232e-01
1.906763469621704232e-01
1.834161253343523090e-01
1.834161253343523090e-01
1.834161253343523090e-01
1.730989682842949962e-01
1.730989682842949962e-01
1.834161253343523090e-01
1.834161253343523090e-01
1.834161253343523090e-01
1.677493312953763915e-01
1.677493312953763915e-01
1.792128391287733935e-01
1.792128391287733935e-01
1.792128391287733935e-01
1.864730607565915077e-01
1.864730607565915077e-01
1.635460450897974760e-01
1.635460450897974760e-01
1.635460450897974760e-01
1.601069927397783810e-01
1.601069927397783810e-01
1.646923958731371929e-01
1.646923958731371929e-01
1.646923958731371929e-01
1.895299961788307341e-01
1.895299961788307341e-01
1.681314482231562879e-01
1.681314482231562879e-01
1.681314482231562879e-01
1.620175773786778628e-01
1.620175773786778628e-01
1.623996943064577869e-01
1.623996943064577869e-01
1.623996943064577869e-01
1.753916698509744021e-01
1.753916698509744021e-01
1.776843714176538080e-01
1.776843714176538080e-01
1.776843714176538080e-01
1.700420328620557975e-01
1.700420328620557975e-01
1.876194115399312246e-01
1.876194115399312246e-01
1.876194115399312246e-01
1.753916698509744021e-01
1.753916698509744021e-01
1.570500573175391545e-01
1.570500573175391545e-01
1.570500573175391545e-01
1.822697745510126199e-01
1.822697745510126199e-01
1.822697745510126199e-01
1.822697745510126199e-01
1.822697745510126199e-01
1.570500573175391545e-01
1.570500573175391545e-01
1.666029805120366747e-01
1.666029805120366747e-01
1.666029805120366747e-01
1.623996943064577869e-01
1.623996943064577869e-01
1.757737867787542985e-01
1.757737867787542985e-01
1.757737867787542985e-01
1.803591899121131104e-01
1.803591899121131104e-01
1.837982422621322054e-01
1.837982422621322054e-01
1.738632021398547889e-01
1.738632021398547889e-01
1.738632021398547889e-01
1.681314482231562879e-01
1.681314482231562879e-01
1.555215896064195691e-01
1.555215896064195691e-01
1.555215896064195691e-01
1.543752388230798522e-01
1.543752388230798522e-01
1.700420328620557975e-01
1.700420328620557975e-01
1.700420328620557975e-01
1.627818112342376833e-01
1.627818112342376833e-01
1.616354604508979664e-01
1.616354604508979664e-01
1.616354604508979664e-01
1.715705005731753829e-01
1.715705005731753829e-01
1.727168513565150998e-01
1.727168513565150998e-01
1.727168513565150998e-01
1.589606419564386641e-01
1.589606419564386641e-01
1.818876576232326958e-01
1.818876576232326958e-01
1.818876576232326958e-01
1.708062667176155902e-01
1.708062667176155902e-01
1.524646541841803704e-01
1.524646541841803704e-01
1.524646541841803704e-01
1.543752388230798522e-01
1.543752388230798522e-01
1.570500573175391545e-01
1.570500573175391545e-01
1.570500573175391545e-01
1.627818112342376833e-01
1.627818112342376833e-01
1.559037065341994654e-01
1.559037065341994654e-01
1.559037065341994654e-01
1.822697745510126199e-01
1.822697745510126199e-01
1.627818112342376833e-01
1.627818112342376833e-01
1.627818112342376833e-01
1.524646541841803704e-01
1.524646541841803704e-01
1.753916698509744021e-01
1.753916698509744021e-01
1.753916698509744021e-01
1.520825372564004463e-01
1.520825372564004463e-01
1.727168513565150998e-01
1.727168513565150998e-01
1.727168513565150998e-01
1.742453190676346853e-01
1.742453190676346853e-01
1.696599159342759011e-01
1.696599159342759011e-01
1.696599159342759011e-01
1.608712265953381737e-01
1.608712265953381737e-01
1.539931218952999559e-01
1.539931218952999559e-01
1.539931218952999559e-01
1.513183034008406536e-01
1.513183034008406536e-01
1.623996943064577869e-01
1.623996943064577869e-01
1.623996943064577869e-01
1.727168513565150998e-01
1.727168513565150998e-01
1.490256018341612476e-01
1.490256018341612476e-01
1.490256018341612476e-01
1.711883836453954866e-01
1.711883836453954866e-01
1.509361864730607572e-01
1.509361864730607572e-01
1.509361864730607572e-01
1.486434849063813513e-01
1.486434849063813513e-01
1.727168513565150998e-01
1.727168513565150998e-01
1.727168513565150998e-01
1.528467711119602668e-01
1.528467711119602668e-01
1.490256018341612476e-01
1.490256018341612476e-01
1.490256018341612476e-01
1.501719526175009645e-01
1.501719526175009645e-01
1.482613679786014549e-01
1.482613679786014549e-01
1.482613679786014549e-01
1.677493312953763915e-01
1.677493312953763915e-01
1.616354604508979664e-01
1.616354604508979664e-01
1.616354604508979664e-01
1.471150171952617380e-01
1.471150171952617380e-01
1.627818112342376833e-01
1.627818112342376833e-01
1.627818112342376833e-01
1.486434849063813513e-01
1.486434849063813513e-01
1.727168513565150998e-01
1.727168513565150998e-01
1.727168513565150998e-01
1.440580817730225394e-01
1.440580817730225394e-01
1.776843714176538080e-01
1.776843714176538080e-01
1.776843714176538080e-01
1.688956820787160806e-01
1.688956820787160806e-01
1.559037065341994654e-01
1.559037065341994654e-01
1.559037065341994654e-01
1.723347344287352034e-01
1.723347344287352034e-01
1.646923958731371929e-01
1.646923958731371929e-01
1.646923958731371929e-01
1.509361864730607572e-01
1.509361864730607572e-01
1.505540695452808608e-01
1.505540695452808608e-01
1.505540695452808608e-01
1.432938479174627466e-01
1.432938479174627466e-01
1.673672143675964952e-01
1.673672143675964952e-01
1.673672143675964952e-01
1.547573557508597764e-01
1.547573557508597764e-01
1.559037065341994654e-01
1.559037065341994654e-01
1.559037065341994654e-01
1.421474971341230298e-01
1.421474971341230298e-01
1.608712265953381737e-01
1.608712265953381737e-01
1.608712265953381737e-01
1.719526175009552793e-01
1.719526175009552793e-01
1.700420328620557975e-01
1.700420328620557975e-01
1.700420328620557975e-01
1.585785250286587678e-01
1.585785250286587678e-01
1.505540695452808608e-01
1.505540695452808608e-01
1.505540695452808608e-01
1.509361864730607572e-01
1.509361864730607572e-01
1.471150171952617380e-01
1.471150171952617380e-01
1.471150171952617380e-01
1.627818112342376833e-01
1.627818112342376833e-01
1.669850974398165711e-01
1.669850974398165711e-01
1.669850974398165711e-01
1.700420328620557975e-01
1.700420328620557975e-01
1.792128391287733935e-01
1.792128391287733935e-01
1.792128391287733935e-01
1.700420328620557975e-01
1.700420328620557975e-01
1.818876576232326958e-01
1.818876576232326958e-01
1.818876576232326958e-01
1.857088269010317150e-01
1.857088269010317150e-01
1.562858234619793618e-01
1.562858234619793618e-01
1.562858234619793618e-01
1.944975162399694424e-01
1.944975162399694424e-01
1.910584638899503196e-01
1.910584638899503196e-01
1.910584638899503196e-01
1.761559037065341948e-01
1.761559037065341948e-01
1.723347344287352034e-01
1.723347344287352034e-01
1.723347344287352034e-01
1.883836453954910173e-01
1.883836453954910173e-01
1.998471532288880470e-01
1.998471532288880470e-01
1.998471532288880470e-01
2.204814673290026728e-01
2.204814673290026728e-01
2.235384027512418714e-01
2.235384027512418714e-01
2.304165074512800893e-01
2.304165074512800893e-01
2.304165074512800893e-01
2.078716087122659539e-01
2.078716087122659539e-01
2.105464272067252562e-01
2.105464272067252562e-01
2.105464272067252562e-01
2.204814673290026728e-01
2.204814673290026728e-01
2.556362246847535546e-01
2.556362246847535546e-01
2.556362246847535546e-01
2.621322124570118484e-01
2.621322124570118484e-01
2.437905999235766008e-01
2.437905999235766008e-01
2.437905999235766008e-01
2.625143293847917447e-01
2.625143293847917447e-01
2.709209017959495758e-01
2.709209017959495758e-01
2.709209017959495758e-01
2.831486434849063705e-01
2.831486434849063705e-01
2.823844096293465777e-01
2.823844096293465777e-01
2.823844096293465777e-01
2.774168895682078695e-01
2.774168895682078695e-01
2.823844096293465777e-01
2.823844096293465777e-01
2.823844096293465777e-01
2.946121513183034279e-01
2.946121513183034279e-01
3.240351547573557256e-01
3.240351547573557256e-01
3.240351547573557256e-01
3.022544898739014108e-01
3.022544898739014108e-01
3.144822315628582610e-01
3.144822315628582610e-01
3.144822315628582610e-01
3.125716469239587236e-01
3.125716469239587236e-01
3.125716469239587236e-01
3.125716469239587236e-01
3.125716469239587236e-01
3.377913641574321613e-01
3.377913641574321613e-01
3.247993886129155738e-01
3.247993886129155738e-01
3.247993886129155738e-01
3.450515857852503032e-01
3.450515857852503032e-01
3.637753152464653916e-01
3.637753152464653916e-01
3.637753152464653916e-01
3.423767672907909732e-01
3.423767672907909732e-01
3.507833397019488042e-01
3.507833397019488042e-01
3.507833397019488042e-01
3.756209400076423455e-01
3.756209400076423455e-01
3.786778754298815164e-01
3.786778754298815164e-01
3.786778754298815164e-01
3.561329766908674088e-01
3.561329766908674088e-01
3.744745892243026564e-01
3.744745892243026564e-01
3.744745892243026564e-01
3.878486816965991402e-01
3.878486816965991402e-01
3.951089033244172821e-01
3.951089033244172821e-01
3.951089033244172821e-01
3.664501337409247217e-01
3.664501337409247217e-01
3.687428353076040999e-01
3.687428353076040999e-01
3.687428353076040999e-01
3.687428353076040999e-01
3.687428353076040999e-01
3.786778754298815164e-01
3.786778754298815164e-01
3.786778754298815164e-01
3.993121895299961976e-01
3.993121895299961976e-01
3.798242262132212610e-01
3.798242262132212610e-01
3.798242262132212610e-01
3.889950324799388848e-01
3.889950324799388848e-01
3.763851738632021382e-01
3.763851738632021382e-01
3.763851738632021382e-01
3.897592663354986775e-01
3.897592663354986775e-01
3.836453954910202246e-01
3.836453954910202246e-01
3.836453954910202246e-01
3.828811616354604319e-01
3.828811616354604319e-01
3.809705769965609501e-01
3.809705769965609501e-01
3.809705769965609501e-01
3.996943064577760940e-01
3.996943064577760940e-01
3.817348108521207428e-01
3.817348108521207428e-01
3.817348108521207428e-01
3.836453954910202246e-01
3.836453954910202246e-01
3.874665647688192438e-01
3.874665647688192438e-01
3.874665647688192438e-01
4.107756973633931996e-01
4.107756973633931996e-01
4.115399312189529923e-01
4.115399312189529923e-01
4.115399312189529923e-01
4.069545280855941805e-01
4.069545280855941805e-01
3.805884600687810537e-01
3.805884600687810537e-01
3.805884600687810537e-01
4.081008788689338695e-01
4.081008788689338695e-01
4.061902942300343877e-01
4.061902942300343877e-01
4.061902942300343877e-01
4.100114635078334069e-01
4.100114635078334069e-01
4.061902942300343877e-01
4.061902942300343877e-01
4.061902942300343877e-01
4.000764233855559904e-01
4.000764233855559904e-01
3.912877340466182630e-01
3.912877340466182630e-01
3.912877340466182630e-01
4.073366450133740768e-01
4.073366450133740768e-01
4.012227741688956795e-01
4.012227741688956795e-01
4.012227741688956795e-01
4.008406572411157831e-01
4.008406572411157831e-01
3.931983186855177448e-01
3.931983186855177448e-01
3.931983186855177448e-01
3.744745892243026564e-01
3.744745892243026564e-01
3.889950324799388848e-01
3.889950324799388848e-01
3.889950324799388848e-01
3.993121895299961976e-01
3.993121895299961976e-01
3.672143675964845144e-01
3.672143675964845144e-01
3.672143675964845144e-01
3.836453954910202246e-01
3.836453954910202246e-01
3.653037829575850326e-01
3.653037829575850326e-01
3.653037829575850326e-01
3.947267863966373858e-01
3.947267863966373858e-01
3.717997707298433263e-01
3.717997707298433263e-01
3.717997707298433263e-01
3.603362628964463243e-01
3.603362628964463243e-01
3.622468475353458062e-01
3.622468475353458062e-01
3.622468475353458062e-01
3.844096293465800729e-01
3.844096293465800729e-01
3.591899121131066352e-01
3.591899121131066352e-01
3.591899121131066352e-01
3.504012227741689078e-01
3.504012227741689078e-01
3.496369889186091151e-01
3.496369889186091151e-01
3.496369889186091151e-01
3.549866259075277197e-01
3.549866259075277197e-01
3.782957585021016200e-01
3.782957585021016200e-01
3.782957585021016200e-01
3.683607183798242035e-01
3.683607183798242035e-01
3.469621704241497850e-01
3.469621704241497850e-01
3.469621704241497850e-01
3.412304165074512841e-01
3.412304165074512841e-01
3.626289644631257025e-01
3.626289644631257025e-01
3.626289644631257025e-01
3.511654566297287006e-01
3.511654566297287006e-01
3.549866259075277197e-01
3.549866259075277197e-01
3.576614444019869943e-01
3.576614444019869943e-01
3.576614444019869943e-01
3.247993886129155738e-01
3.247993886129155738e-01
3.416125334352311804e-01
3.416125334352311804e-01
3.416125334352311804e-01
3.465800534963698887e-01
3.465800534963698887e-01
3.240351547573557256e-01
3.240351547573557256e-01
3.240351547573557256e-01
3.427588842185708695e-01
3.427588842185708695e-01
3.397019487963316986e-01
3.397019487963316986e-01
3.397019487963316986e-01
3.171570500573175355e-01
3.171570500573175355e-01
3.091325945739396008e-01
3.091325945739396008e-01
3.091325945739396008e-01
3.110431792128391382e-01
3.110431792128391382e-01
3.320596102407336603e-01
3.320596102407336603e-01
3.320596102407336603e-01
3.014902560183416180e-01
3.014902560183416180e-01
3.263278563240351593e-01
3.263278563240351593e-01
3.263278563240351593e-01
