3.167749331295376392e-01
3.263278563240351593e-01
3.263278563240351593e-01
3.263278563240351593e-01
3.293847917462743857e-01
3.293847917462743857e-01
3.034008406572410999e-01
3.034008406572410999e-01
3.034008406572410999e-01
3.022544898739014108e-01
3.022544898739014108e-01
3.255636224684753666e-01
3.255636224684753666e-01
3.255636224684753666e-01
2.930836836071837870e-01
2.930836836071837870e-01
3.053114252961406372e-01
3.053114252961406372e-01
3.053114252961406372e-01
3.060756591517004299e-01
3.060756591517004299e-01
2.865876958349254933e-01
2.865876958349254933e-01
2.865876958349254933e-01
2.858234619793657005e-01
2.858234619793657005e-01
3.041650745128008926e-01
3.041650745128008926e-01
3.041650745128008926e-01
3.171570500573175355e-01
3.171570500573175355e-01
3.171570500573175355e-01
3.171570500573175355e-01
3.171570500573175355e-01
3.133358807795185164e-01
3.133358807795185164e-01
3.175391669850974319e-01
3.175391669850974319e-01
3.175391669850974319e-01
2.812380588460068886e-01
2.812380588460068886e-01
2.862055789071455969e-01
2.862055789071455969e-01
2.862055789071455969e-01
2.839128773404661632e-01
2.839128773404661632e-01
2.942300343905234761e-01
2.942300343905234761e-01
2.942300343905234761e-01
3.091325945739396008e-01
3.091325945739396008e-01
2.999617883072220326e-01
2.999617883072220326e-01
2.999617883072220326e-01
2.758884218570882840e-01
2.758884218570882840e-01
2.797095911348873032e-01
2.797095911348873032e-01
2.797095911348873032e-01
3.056935422239205336e-01
3.056935422239205336e-01
2.938479174627435797e-01
2.938479174627435797e-01
2.938479174627435797e-01
3.026366068016813071e-01
3.026366068016813071e-01
2.755063049293083877e-01
2.755063049293083877e-01
2.755063049293083877e-01
2.663354986625907639e-01
2.663354986625907639e-01
2.862055789071455969e-01
2.862055789071455969e-01
2.862055789071455969e-01
2.705387848681696794e-01
2.705387848681696794e-01
2.984333205961023916e-01
2.984333205961023916e-01
2.984333205961023916e-01
2.930836836071837870e-01
2.930836836071837870e-01
2.812380588460068886e-01
2.812380588460068886e-01
2.812380588460068886e-01
2.678639663737103493e-01
2.678639663737103493e-01
2.690103171570500384e-01
2.690103171570500384e-01
2.690103171570500384e-01
2.663354986625907639e-01
2.663354986625907639e-01
2.831486434849063705e-01
2.831486434849063705e-01
2.831486434849063705e-01
2.869698127627053896e-01
2.869698127627053896e-01
2.609858616736721593e-01
2.609858616736721593e-01
2.609858616736721593e-01
2.537256400458540173e-01
2.537256400458540173e-01
2.613679786014520556e-01
2.613679786014520556e-01
2.613679786014520556e-01
2.567825754680932437e-01
2.567825754680932437e-01
2.724493695070691612e-01
2.724493695070691612e-01
2.724493695070691612e-01
2.835307604126862668e-01
2.835307604126862668e-01
2.720672525792892649e-01
2.720672525792892649e-01
2.720672525792892649e-01
2.827665265571264741e-01
2.827665265571264741e-01
2.678639663737103493e-01
2.678639663737103493e-01
2.678639663737103493e-01
2.506687046236148464e-01
2.506687046236148464e-01
2.434084829957967044e-01
2.434084829957967044e-01
2.434084829957967044e-01
2.720672525792892649e-01
2.720672525792892649e-01
2.499044707680550259e-01
2.499044707680550259e-01
2.499044707680550259e-01
2.579289262514329328e-01
2.579289262514329328e-01
2.388230798624378926e-01
2.388230798624378926e-01
2.388230798624378926e-01
2.709209017959495758e-01
2.709209017959495758e-01
2.353840275124187975e-01
2.353840275124187975e-01
2.353840275124187975e-01
2.384409629346579962e-01
2.384409629346579962e-01
2.621322124570118484e-01
2.621322124570118484e-01
2.621322124570118484e-01
2.529614061902942246e-01
2.529614061902942246e-01
2.449369507069163177e-01
2.449369507069163177e-01
2.449369507069163177e-01
2.365303782957585144e-01
2.365303782957585144e-01
2.468475353458158272e-01
2.468475353458158272e-01
2.468475353458158272e-01
2.430263660680168081e-01
2.430263660680168081e-01
2.388230798624378926e-01
2.388230798624378926e-01
2.388230798624378926e-01
2.632785632403515375e-01
2.632785632403515375e-01
2.514329384791746391e-01
2.514329384791746391e-01
2.514329384791746391e-01
2.583110431792128292e-01
2.583110431792128292e-01
2.235384027512418714e-01
2.235384027512418714e-01
2.235384027512418714e-01
2.231562858234619751e-01
2.231562858234619751e-01
2.518150554069545355e-01
2.518150554069545355e-01
2.518150554069545355e-01
2.392051967902178167e-01
2.392051967902178167e-01
2.292701566679404002e-01
2.292701566679404002e-01
2.292701566679404002e-01
2.311807413068398820e-01
2.311807413068398820e-01
2.541077569736339137e-01
2.541077569736339137e-01
2.541077569736339137e-01
2.518150554069545355e-01
2.518150554069545355e-01
2.468475353458158272e-01
2.468475353458158272e-01
2.468475353458158272e-01
2.227741688956820787e-01
2.227741688956820787e-01
2.525792892625143282e-01
2.525792892625143282e-01
2.243026366068016919e-01
2.243026366068016919e-01
2.243026366068016919e-01
2.479938861291555163e-01
2.479938861291555163e-01
2.483760030569354127e-01
2.483760030569354127e-01
2.483760030569354127e-01
2.143675964845242754e-01
2.143675964845242754e-01
2.132212457011845586e-01
2.132212457011845586e-01
2.132212457011845586e-01
2.437905999235766008e-01
2.437905999235766008e-01
2.395873137179977130e-01
2.395873137179977130e-01
2.395873137179977130e-01
2.376767290790982035e-01
2.376767290790982035e-01
2.246847535345815883e-01
2.246847535345815883e-01
2.246847535345815883e-01
2.128391287734046622e-01
2.128391287734046622e-01
2.132212457011845586e-01
2.132212457011845586e-01
2.132212457011845586e-01
2.227741688956820787e-01
2.227741688956820787e-01
2.143675964845242754e-01
2.143675964845242754e-01
2.143675964845242754e-01
2.136033626289644549e-01
2.136033626289644549e-01
2.067252579289262648e-01
2.067252579289262648e-01
2.067252579289262648e-01
2.338555598012991843e-01
2.338555598012991843e-01
2.239205196790217678e-01
2.239205196790217678e-01
2.239205196790217678e-01
2.376767290790982035e-01
2.376767290790982035e-01
2.071073748567061612e-01
2.071073748567061612e-01
2.071073748567061612e-01
2.055789071455865480e-01
2.055789071455865480e-01
2.399694306457776094e-01
2.399694306457776094e-01
2.399694306457776094e-01
2.388230798624378926e-01
2.388230798624378926e-01
2.139854795567443513e-01
2.139854795567443513e-01
2.139854795567443513e-01
2.411157814291172985e-01
2.411157814291172985e-01
2.380588460068780998e-01
2.380588460068780998e-01
2.380588460068780998e-01
2.399694306457776094e-01
2.399694306457776094e-01
2.086358425678257467e-01
2.086358425678257467e-01
2.086358425678257467e-01
2.116927779900649731e-01
2.116927779900649731e-01
2.113106610622850490e-01
2.113106610622850490e-01
2.113106610622850490e-01
2.128391287734046622e-01
2.128391287734046622e-01
2.292701566679404002e-01
2.292701566679404002e-01
2.292701566679404002e-01
2.200993504012227764e-01
2.200993504012227764e-01
2.544898739014138100e-01
2.544898739014138100e-01
2.544898739014138100e-01
2.399694306457776094e-01
2.399694306457776094e-01
2.613679786014520556e-01
2.613679786014520556e-01
2.613679786014520556e-01
2.388230798624378926e-01
2.388230798624378926e-01
2.418800152846771190e-01
2.418800152846771190e-01
2.418800152846771190e-01
2.682460833014902457e-01
2.682460833014902457e-01
2.483760030569354127e-01
2.483760030569354127e-01
2.483760030569354127e-01
2.651891478792510748e-01
2.651891478792510748e-01
2.720672525792892649e-01
2.720672525792892649e-01
2.720672525792892649e-01
2.770347726404279731e-01
2.770347726404279731e-01
2.743599541459686431e-01
2.743599541459686431e-01
2.743599541459686431e-01
2.777990064959877659e-01
2.777990064959877659e-01
3.171570500573175355e-01
3.171570500573175355e-01
3.171570500573175355e-01
2.980512036683224952e-01
2.980512036683224952e-01
3.332059610240733494e-01
3.332059610240733494e-01
3.332059610240733494e-01
3.133358807795185164e-01
3.133358807795185164e-01
3.347344287351929903e-01
3.347344287351929903e-01
3.347344287351929903e-01
3.362628964463125758e-01
3.362628964463125758e-01
3.324417271685135566e-01
3.324417271685135566e-01
3.324417271685135566e-01
3.400840657241115950e-01
3.400840657241115950e-01
3.400840657241115950e-01
3.400840657241115950e-01
3.400840657241115950e-01
3.599541459686664280e-01
3.599541459686664280e-01
3.614826136797860134e-01
3.614826136797860134e-01
3.614826136797860134e-01
3.679786014520443072e-01
3.679786014520443072e-01
3.867023309132594511e-01
3.867023309132594511e-01
3.867023309132594511e-01
3.752388230798624491e-01
3.752388230798624491e-01
3.824990447076805355e-01
3.824990447076805355e-01
3.824990447076805355e-01
4.084829957967138214e-01
4.084829957967138214e-01
4.103935804356133032e-01
4.103935804356133032e-01
4.103935804356133032e-01
4.092472296522736142e-01
4.092472296522736142e-01
3.886129155521589329e-01
3.886129155521589329e-01
3.886129155521589329e-01
3.954910202521971785e-01
3.954910202521971785e-01
4.252961406190294280e-01
4.252961406190294280e-01
4.252961406190294280e-01
3.909056171188383666e-01
3.909056171188383666e-01
4.283530760412686544e-01
4.283530760412686544e-01
4.283530760412686544e-01
4.298815437523882399e-01
4.298815437523882399e-01
4.081008788689338695e-01
4.081008788689338695e-01
4.081008788689338695e-01
4.306457776079480326e-01
4.306457776079480326e-01
3.985479556744364049e-01
3.985479556744364049e-01
3.985479556744364049e-01
3.981658387466564530e-01
3.981658387466564530e-01
4.088651127244937178e-01
4.088651127244937178e-01
4.088651127244937178e-01
4.165074512800917006e-01
4.165074512800917006e-01
4.241497898356897389e-01
4.241497898356897389e-01
4.241497898356897389e-01
4.275888421857088062e-01
4.275888421857088062e-01
4.027512418800152649e-01
4.027512418800152649e-01
4.027512418800152649e-01
3.935804356132976967e-01
3.935804356132976967e-01
3.931983186855177448e-01
3.931983186855177448e-01
3.931983186855177448e-01
3.977837218188765567e-01
3.977837218188765567e-01
4.272067252579289098e-01
4.272067252579289098e-01
4.042797095911349059e-01
4.042797095911349059e-01
4.042797095911349059e-01
3.970194879633167639e-01
3.970194879633167639e-01
3.947267863966373858e-01
3.947267863966373858e-01
3.947267863966373858e-01
4.027512418800152649e-01
4.027512418800152649e-01
3.889950324799388848e-01
3.889950324799388848e-01
3.889950324799388848e-01
4.061902942300343877e-01
4.061902942300343877e-01
4.103935804356133032e-01
4.103935804356133032e-01
4.103935804356133032e-01
4.184180359189912379e-01
4.184180359189912379e-01
4.165074512800917006e-01
4.165074512800917006e-01
4.165074512800917006e-01
3.798242262132212610e-01
3.798242262132212610e-01
4.088651127244937178e-01
4.088651127244937178e-01
4.088651127244937178e-01
3.821169277799006392e-01
3.821169277799006392e-01
3.993121895299961976e-01
3.993121895299961976e-01
3.993121895299961976e-01
4.046618265189148023e-01
4.046618265189148023e-01
3.878486816965991402e-01
3.878486816965991402e-01
3.878486816965991402e-01
3.744745892243026564e-01
3.744745892243026564e-01
3.954910202521971785e-01
3.954910202521971785e-01
3.954910202521971785e-01
3.977837218188765567e-01
3.977837218188765567e-01
3.763851738632021382e-01
3.763851738632021382e-01
3.763851738632021382e-01
3.729461215131830154e-01
3.729461215131830154e-01
3.729461215131830154e-01
3.729461215131830154e-01
3.729461215131830154e-01
4.008406572411157831e-01
4.008406572411157831e-01
3.954910202521971785e-01
3.954910202521971785e-01
3.954910202521971785e-01
3.698891860909438445e-01
3.698891860909438445e-01
3.717997707298433263e-01
3.717997707298433263e-01
3.717997707298433263e-01
3.943446694688574894e-01
3.943446694688574894e-01
3.962552541077569712e-01
3.962552541077569712e-01
3.962552541077569712e-01
3.802063431410011574e-01
3.802063431410011574e-01
3.954910202521971785e-01
3.954910202521971785e-01
3.954910202521971785e-01
3.595720290408865316e-01
3.595720290408865316e-01
3.909056171188383666e-01
3.909056171188383666e-01
3.909056171188383666e-01
3.695070691631639481e-01
3.695070691631639481e-01
3.863202139854795547e-01
3.863202139854795547e-01
3.863202139854795547e-01
3.786778754298815164e-01
3.786778754298815164e-01
3.828811616354604319e-01
3.828811616354604319e-01
3.828811616354604319e-01
3.836453954910202246e-01
3.836453954910202246e-01
3.660680168131448253e-01
3.660680168131448253e-01
3.660680168131448253e-01
3.672143675964845144e-01
3.672143675964845144e-01
3.763851738632021382e-01
3.763851738632021382e-01
3.763851738632021382e-01
3.790599923576614683e-01
3.790599923576614683e-01
3.626289644631257025e-01
3.626289644631257025e-01
3.626289644631257025e-01
3.408482995796713877e-01
3.408482995796713877e-01
3.473442873519296814e-01
3.473442873519296814e-01
3.473442873519296814e-01
3.477264042797095778e-01
3.477264042797095778e-01
3.351165456629728867e-01
3.351165456629728867e-01
3.351165456629728867e-01
3.584256782575467870e-01
3.584256782575467870e-01
3.362628964463125758e-01
3.362628964463125758e-01
3.362628964463125758e-01
3.309132594573939712e-01
3.309132594573939712e-01
3.259457393962552629e-01
3.259457393962552629e-01
3.259457393962552629e-01
3.343523118074130940e-01
3.343523118074130940e-01
3.286205578907145375e-01
3.286205578907145375e-01
3.286205578907145375e-01
3.278563240351547448e-01
3.278563240351547448e-01
3.504012227741689078e-01
3.504012227741689078e-01
3.504012227741689078e-01
3.477264042797095778e-01
3.477264042797095778e-01
3.190676346962170173e-01
3.190676346962170173e-01
3.190676346962170173e-01
3.343523118074130940e-01
3.343523118074130940e-01
3.270920901795949520e-01
3.270920901795949520e-01
3.270920901795949520e-01
3.137179977072984127e-01
3.137179977072984127e-01
3.194497516239969692e-01
3.194497516239969692e-01
3.194497516239969692e-01
3.259457393962552629e-01
3.259457393962552629e-01
3.320596102407336603e-01
3.320596102407336603e-01
3.320596102407336603e-01
3.358807795185326794e-01
3.358807795185326794e-01
3.034008406572410999e-01
3.034008406572410999e-01
3.034008406572410999e-01
2.995796713794421362e-01
2.995796713794421362e-01
3.209782193351165547e-01
3.209782193351165547e-01
3.209782193351165547e-01
3.236530378295758292e-01
3.236530378295758292e-01
3.163928162017577428e-01
3.163928162017577428e-01
3.163928162017577428e-01
3.034008406572410999e-01
3.034008406572410999e-01
2.976690867405425989e-01
2.976690867405425989e-01
2.976690867405425989e-01
2.892625143293847678e-01
2.892625143293847678e-01
3.175391669850974319e-01
3.175391669850974319e-01
3.175391669850974319e-01
3.202139854795567619e-01
3.202139854795567619e-01
3.041650745128008926e-01
3.041650745128008926e-01
3.041650745128008926e-01
2.900267481849446161e-01
2.900267481849446161e-01
2.831486434849063705e-01
2.831486434849063705e-01
2.831486434849063705e-01
2.827665265571264741e-01
2.827665265571264741e-01
3.175391669850974319e-01
3.175391669850974319e-01
3.175391669850974319e-01
2.942300343905234761e-01
2.942300343905234761e-01
2.892625143293847678e-01
2.892625143293847678e-01
2.892625143293847678e-01
3.049293083683607408e-01
3.049293083683607408e-01
3.102789453572793454e-01
3.102789453572793454e-01
2.972869698127627025e-01
2.972869698127627025e-01
2.972869698127627025e-01
3.118074130683989309e-01
3.118074130683989309e-01
2.808559419182269923e-01
2.808559419182269923e-01
2.808559419182269923e-01
2.892625143293847678e-01
2.892625143293847678e-01
2.862055789071455969e-01
2.862055789071455969e-01
2.862055789071455969e-01
2.858234619793657005e-01
2.858234619793657005e-01
3.137179977072984127e-01
3.137179977072984127e-01
3.137179977072984127e-01
3.034008406572410999e-01
3.034008406572410999e-01
2.777990064959877659e-01
2.777990064959877659e-01
2.777990064959877659e-01
3.118074130683989309e-01
3.118074130683989309e-01
2.770347726404279731e-01
2.770347726404279731e-01
2.770347726404279731e-01
3.083683607183798081e-01
3.083683607183798081e-01
2.900267481849446161e-01
2.900267481849446161e-01
2.900267481849446161e-01
2.774168895682078695e-01
2.774168895682078695e-01
3.110431792128391382e-01
3.110431792128391382e-01
3.110431792128391382e-01
2.953763851738632207e-01
2.953763851738632207e-01
2.976690867405425989e-01
2.976690867405425989e-01
2.976690867405425989e-01
2.980512036683224952e-01
2.980512036683224952e-01
2.980512036683224952e-01
2.980512036683224952e-01
2.980512036683224952e-01
2.758884218570882840e-01
2.758884218570882840e-01
2.732136033626289540e-01
2.732136033626289540e-01
2.732136033626289540e-01
3.045471914405808445e-01
3.045471914405808445e-01
2.961406190294230134e-01
2.961406190294230134e-01
2.961406190294230134e-01
2.904088651127245124e-01
2.904088651127245124e-01
2.678639663737103493e-01
2.678639663737103493e-01
2.678639663737103493e-01
2.774168895682078695e-01
2.774168895682078695e-01
2.804738249904470959e-01
2.804738249904470959e-01
2.804738249904470959e-01
2.678639663737103493e-01
2.678639663737103493e-01
2.850592281238059078e-01
2.850592281238059078e-01
2.850592281238059078e-01
2.678639663737103493e-01
2.678639663737103493e-01
2.949942682460833243e-01
2.949942682460833243e-01
2.949942682460833243e-01
2.869698127627053896e-01
2.869698127627053896e-01
2.927015666794038906e-01
2.927015666794038906e-01
2.927015666794038906e-01
2.609858616736721593e-01
2.609858616736721593e-01
2.606037447458922629e-01
2.606037447458922629e-01
2.606037447458922629e-01
2.663354986625907639e-01
2.663354986625907639e-01
2.678639663737103493e-01
2.678639663737103493e-01
2.678639663737103493e-01
2.865876958349254933e-01
2.865876958349254933e-01
2.774168895682078695e-01
2.774168895682078695e-01
2.774168895682078695e-01
2.720672525792892649e-01
2.720672525792892649e-01
2.713030187237294721e-01
2.713030187237294721e-01
2.713030187237294721e-01
2.693924340848299348e-01
2.693924340848299348e-01
2.483760030569354127e-01
2.483760030569354127e-01
2.483760030569354127e-01
2.766526557126480768e-01
2.766526557126480768e-01
2.751241880015284913e-01
2.751241880015284913e-01
2.751241880015284913e-01
2.697745510126098312e-01
2.697745510126098312e-01
2.399694306457776094e-01
2.399694306457776094e-01
2.399694306457776094e-01
2.384409629346579962e-01
2.384409629346579962e-01
2.713030187237294721e-01
2.713030187237294721e-01
2.713030187237294721e-01
2.590752770347726219e-01
2.590752770347726219e-01
2.357661444401986939e-01
2.357661444401986939e-01
2.357661444401986939e-01
2.361482613679785902e-01
2.361482613679785902e-01
2.353840275124187975e-01
2.353840275124187975e-01
2.353840275124187975e-01
2.560183416125334510e-01
2.560183416125334510e-01
2.265953381734810979e-01
2.265953381734810979e-01
2.265953381734810979e-01
2.552541077569736583e-01
2.552541077569736583e-01
2.583110431792128292e-01
2.583110431792128292e-01
2.583110431792128292e-01
2.277416889568207869e-01
2.277416889568207869e-01
2.223920519679021823e-01
2.223920519679021823e-01
2.223920519679021823e-01
2.330913259457393916e-01
2.330913259457393916e-01
2.212457011845624655e-01
2.212457011845624655e-01
2.212457011845624655e-01
2.170424149789835777e-01
2.170424149789835777e-01
2.422621322124570153e-01
2.422621322124570153e-01
2.422621322124570153e-01
2.281238058846006833e-01
2.281238058846006833e-01
2.178066488345433704e-01
2.178066488345433704e-01
2.178066488345433704e-01
2.468475353458158272e-01
2.468475353458158272e-01
2.235384027512418714e-01
2.235384027512418714e-01
2.235384027512418714e-01
2.411157814291172985e-01
2.411157814291172985e-01
2.059610240733664444e-01
2.059610240733664444e-01
2.059610240733664444e-01
2.200993504012227764e-01
2.200993504012227764e-01
2.128391287734046622e-01
2.128391287734046622e-01
2.128391287734046622e-01
2.346197936568590048e-01
2.346197936568590048e-01
2.365303782957585144e-01
2.365303782957585144e-01
2.365303782957585144e-01
2.139854795567443513e-01
2.139854795567443513e-01
2.048146732900267553e-01
2.048146732900267553e-01
2.048146732900267553e-01
1.975544516622086411e-01
1.975544516622086411e-01
2.281238058846006833e-01
2.281238058846006833e-01
2.281238058846006833e-01
2.109285441345051526e-01
2.109285441345051526e-01
2.258311043179212774e-01
2.258311043179212774e-01
2.258311043179212774e-01
2.231562858234619751e-01
2.231562858234619751e-01
1.906763469621704232e-01
1.906763469621704232e-01
1.906763469621704232e-01
1.925869316010699328e-01
1.925869316010699328e-01
1.941153993121895183e-01
1.941153993121895183e-01
1.887657623232709136e-01
1.887657623232709136e-01
1.887657623232709136e-01
1.987008024455483302e-01
1.987008024455483302e-01
2.017577378677875566e-01
2.017577378677875566e-01
2.017577378677875566e-01
1.925869316010699328e-01
1.925869316010699328e-01
2.147497134123041718e-01
2.147497134123041718e-01
2.147497134123041718e-01
2.097821933511654635e-01
2.097821933511654635e-01
1.860909438288116113e-01
1.860909438288116113e-01
1.860909438288116113e-01
1.776843714176538080e-01
1.776843714176538080e-01
1.952617500955292351e-01
1.952617500955292351e-01
1.952617500955292351e-01
1.769201375620939876e-01
1.769201375620939876e-01
1.730989682842949962e-01
1.730989682842949962e-01
1.730989682842949962e-01
2.021398547955674529e-01
2.021398547955674529e-01
2.021398547955674529e-01
2.021398547955674529e-01
2.021398547955674529e-01
1.841803591899121018e-01
1.841803591899121018e-01
1.723347344287352034e-01
1.723347344287352034e-01
1.723347344287352034e-01
1.902942300343905269e-01
1.902942300343905269e-01
1.944975162399694424e-01
1.944975162399694424e-01
1.944975162399694424e-01
1.742453190676346853e-01
1.742453190676346853e-01
1.925869316010699328e-01
1.925869316010699328e-01
1.925869316010699328e-01
2.082537256400458503e-01
2.082537256400458503e-01
2.055789071455865480e-01
2.055789071455865480e-01
2.055789071455865480e-01
1.776843714176538080e-01
1.776843714176538080e-01
2.086358425678257467e-01
2.086358425678257467e-01
2.086358425678257467e-01
1.708062667176155902e-01
1.708062667176155902e-01
2.067252579289262648e-01
2.067252579289262648e-01
2.067252579289262648e-01
2.032862055789071420e-01
2.032862055789071420e-01
2.017577378677875566e-01
2.017577378677875566e-01
2.017577378677875566e-01
1.688956820787160806e-01
1.688956820787160806e-01
1.807413068398930067e-01
1.807413068398930067e-01
1.807413068398930067e-01
1.688956820787160806e-01
1.688956820787160806e-01
1.635460450897974760e-01
1.635460450897974760e-01
1.635460450897974760e-01
1.987008024455483302e-01
1.987008024455483302e-01
1.646923958731371929e-01
1.646923958731371929e-01
1.646923958731371929e-01
1.818876576232326958e-01
1.818876576232326958e-01
1.623996943064577869e-01
1.623996943064577869e-01
1.623996943064577869e-01
1.715705005731753829e-01
1.715705005731753829e-01
1.860909438288116113e-01
1.860909438288116113e-01
1.860909438288116113e-01
1.864730607565915077e-01
1.864730607565915077e-01
1.746274359954146094e-01
1.746274359954146094e-01
1.746274359954146094e-01
1.883836453954910173e-01
1.883836453954910173e-01
1.708062667176155902e-01
1.708062667176155902e-01
1.708062667176155902e-01
1.876194115399312246e-01
1.876194115399312246e-01
1.761559037065341948e-01
1.761559037065341948e-01
1.761559037065341948e-01
1.581964081008788714e-01
1.581964081008788714e-01
1.857088269010317150e-01
1.857088269010317150e-01
1.857088269010317150e-01
1.822697745510126199e-01
1.822697745510126199e-01
1.719526175009552793e-01
1.719526175009552793e-01
1.719526175009552793e-01
1.700420328620557975e-01
1.700420328620557975e-01
2.040504394344669348e-01
2.040504394344669348e-01
2.040504394344669348e-01
1.826518914787925163e-01
1.826518914787925163e-01
2.059610240733664444e-01
2.059610240733664444e-01
2.059610240733664444e-01
2.132212457011845586e-01
2.132212457011845586e-01
2.239205196790217678e-01
2.239205196790217678e-01
2.239205196790217678e-01
1.979365685899885374e-01
1.979365685899885374e-01
2.040504394344669348e-01
2.040504394344669348e-01
2.040504394344669348e-01
2.422621322124570153e-01
2.422621322124570153e-01
2.265953381734810979e-01
2.265953381734810979e-01
2.265953381734810979e-01
2.212457011845624655e-01
2.212457011845624655e-01
2.258311043179212774e-01
2.258311043179212774e-01
2.258311043179212774e-01
2.350019105846389011e-01
2.350019105846389011e-01
2.449369507069163177e-01
2.449369507069163177e-01
2.449369507069163177e-01
2.510508215513947428e-01
2.510508215513947428e-01
2.881161635460450787e-01
2.881161635460450787e-01
2.881161635460450787e-01
2.609858616736721593e-01
2.609858616736721593e-01
2.980512036683224952e-01
2.980512036683224952e-01
2.980512036683224952e-01
2.976690867405425989e-01
2.976690867405425989e-01
3.163928162017577428e-01
3.163928162017577428e-01
3.163928162017577428e-01
3.007260221627818253e-01
3.007260221627818253e-01
3.267099732518150557e-01
3.267099732518150557e-01
3.267099732518150557e-01
3.110431792128391382e-01
3.110431792128391382e-01
3.083683607183798081e-01
3.083683607183798081e-01
3.083683607183798081e-01
3.133358807795185164e-01
3.133358807795185164e-01
3.446694688574704069e-01
3.446694688574704069e-01
3.446694688574704069e-01
3.515475735575085969e-01
3.515475735575085969e-01
3.278563240351547448e-01
3.278563240351547448e-01
3.278563240351547448e-01
3.274742071073748484e-01
3.274742071073748484e-01
3.580435613297668906e-01
3.580435613297668906e-01
3.580435613297668906e-01
3.267099732518150557e-01
3.267099732518150557e-01
3.427588842185708695e-01
3.427588842185708695e-01
3.427588842185708695e-01
3.653037829575850326e-01
3.653037829575850326e-01
3.339701948796331421e-01
3.339701948796331421e-01
3.351165456629728867e-01
3.351165456629728867e-01
3.351165456629728867e-01
3.458158196408100959e-01
3.458158196408100959e-01
3.519296904852884933e-01
3.519296904852884933e-01
3.519296904852884933e-01
3.653037829575850326e-01
3.653037829575850326e-01
3.702713030187237409e-01
3.702713030187237409e-01
3.702713030187237409e-01
3.672143675964845144e-01
3.672143675964845144e-01
3.419946503630110768e-01
3.419946503630110768e-01
3.419946503630110768e-01
3.442873519296905105e-01
3.442873519296905105e-01
3.469621704241497850e-01
3.469621704241497850e-01
3.469621704241497850e-01
3.416125334352311804e-01
3.416125334352311804e-01
3.717997707298433263e-01
3.717997707298433263e-01
3.717997707298433263e-01
3.714176538020634299e-01
3.714176538020634299e-01
3.397019487963316986e-01
3.397019487963316986e-01
3.397019487963316986e-01
3.389377149407718504e-01
3.389377149407718504e-01
3.576614444019869943e-01
3.576614444019869943e-01
3.576614444019869943e-01
3.614826136797860134e-01
3.614826136797860134e-01
3.328238440962934530e-01
3.328238440962934530e-01
3.328238440962934530e-01
3.335880779518532457e-01
3.335880779518532457e-01
3.607183798242262207e-01
3.607183798242262207e-01
3.607183798242262207e-01
3.362628964463125758e-01
3.362628964463125758e-01
3.362628964463125758e-01
3.362628964463125758e-01
3.362628964463125758e-01
3.374092472296522649e-01
3.374092472296522649e-01
3.607183798242262207e-01
3.607183798242262207e-01
3.607183798242262207e-01
3.217424531906763474e-01
3.217424531906763474e-01
3.183034008406572246e-01
3.183034008406572246e-01
3.183034008406572246e-01
3.473442873519296814e-01
3.473442873519296814e-01
3.282384409629346411e-01
3.282384409629346411e-01
3.282384409629346411e-01
3.183034008406572246e-01
3.183034008406572246e-01
3.370271303018723685e-01
3.370271303018723685e-01
3.370271303018723685e-01
3.156285823461979501e-01
3.156285823461979501e-01
3.473442873519296814e-01
3.473442873519296814e-01
3.473442873519296814e-01
3.458158196408100959e-01
3.458158196408100959e-01
3.095147115017195527e-01
3.095147115017195527e-01
3.095147115017195527e-01
3.312953763851738676e-01
3.312953763851738676e-01
3.106610622850592418e-01
3.106610622850592418e-01
3.106610622850592418e-01
3.056935422239205336e-01
3.056935422239205336e-01
3.110431792128391382e-01
3.110431792128391382e-01
3.110431792128391382e-01
3.190676346962170173e-01
3.190676346962170173e-01
3.324417271685135566e-01
3.324417271685135566e-01
3.324417271685135566e-01
3.121895299961788273e-01
3.121895299961788273e-01
3.011081390905617217e-01
3.011081390905617217e-01
3.011081390905617217e-01
3.118074130683989309e-01
3.118074130683989309e-01
3.232709209017959329e-01
3.232709209017959329e-01
3.232709209017959329e-01
3.312953763851738676e-01
3.312953763851738676e-01
3.198318685517768656e-01
3.198318685517768656e-01
3.198318685517768656e-01
2.965227359572029098e-01
2.965227359572029098e-01
2.972869698127627025e-01
2.972869698127627025e-01
2.972869698127627025e-01
3.076041268628200154e-01
3.076041268628200154e-01
3.274742071073748484e-01
3.274742071073748484e-01
3.274742071073748484e-01
3.076041268628200154e-01
3.076041268628200154e-01
3.175391669850974319e-01
3.175391669850974319e-01
3.175391669850974319e-01
3.095147115017195527e-01
3.095147115017195527e-01
2.938479174627435797e-01
2.938479174627435797e-01
2.938479174627435797e-01
3.076041268628200154e-01
3.076041268628200154e-01
3.121895299961788273e-01
3.121895299961788273e-01
3.121895299961788273e-01
2.797095911348873032e-01
2.797095911348873032e-01
2.846771111960260114e-01
2.846771111960260114e-01
2.846771111960260114e-01
2.999617883072220326e-01
2.999617883072220326e-01
2.793274742071073513e-01
2.793274742071073513e-01
2.793274742071073513e-01
2.858234619793657005e-01
2.858234619793657005e-01
2.785632403515475586e-01
2.785632403515475586e-01
2.785632403515475586e-01
3.053114252961406372e-01
3.053114252961406372e-01
2.774168895682078695e-01
2.774168895682078695e-01
2.774168895682078695e-01
2.766526557126480768e-01
2.766526557126480768e-01
2.873519296904852860e-01
2.873519296904852860e-01
2.873519296904852860e-01
2.701566679403897830e-01
2.701566679403897830e-01
2.609858616736721593e-01
2.609858616736721593e-01
2.609858616736721593e-01
2.904088651127245124e-01
2.904088651127245124e-01
2.617500955292319520e-01
2.617500955292319520e-01
2.617500955292319520e-01
2.529614061902942246e-01
2.529614061902942246e-01
2.502865876958349500e-01
2.502865876958349500e-01
2.502865876958349500e-01
2.739778372181887467e-01
2.739778372181887467e-01
2.449369507069163177e-01
2.449369507069163177e-01
2.449369507069163177e-01
2.479938861291555163e-01
2.479938861291555163e-01
2.445548337791364213e-01
2.445548337791364213e-01
2.445548337791364213e-01
2.422621322124570153e-01
2.422621322124570153e-01
2.655712648070309712e-01
2.655712648070309712e-01
2.655712648070309712e-01
2.514329384791746391e-01
2.514329384791746391e-01
2.369124952235384107e-01
2.369124952235384107e-01
2.369124952235384107e-01
2.369124952235384107e-01
2.369124952235384107e-01
2.690103171570500384e-01
2.690103171570500384e-01
2.690103171570500384e-01
2.678639663737103493e-01
2.678639663737103493e-01
2.281238058846006833e-01
2.281238058846006833e-01
2.617500955292319520e-01
2.617500955292319520e-01
2.617500955292319520e-01
2.338555598012991843e-01
2.338555598012991843e-01
2.514329384791746391e-01
2.514329384791746391e-01
2.514329384791746391e-01
2.311807413068398820e-01
2.311807413068398820e-01
2.300343905235001929e-01
2.300343905235001929e-01
2.300343905235001929e-01
2.254489873901413810e-01
2.254489873901413810e-01
2.388230798624378926e-01
2.388230798624378926e-01
2.388230798624378926e-01
2.457011845624761104e-01
2.457011845624761104e-01
2.556362246847535546e-01
2.556362246847535546e-01
2.556362246847535546e-01
2.411157814291172985e-01
2.411157814291172985e-01
2.212457011845624655e-01
2.212457011845624655e-01
2.212457011845624655e-01
2.315628582346198061e-01
2.315628582346198061e-01
2.460833014902560067e-01
2.460833014902560067e-01
2.460833014902560067e-01
2.342376767290791084e-01
2.342376767290791084e-01
2.357661444401986939e-01
2.357661444401986939e-01
2.357661444401986939e-01
2.350019105846389011e-01
2.350019105846389011e-01
2.479938861291555163e-01
2.479938861291555163e-01
2.479938861291555163e-01
2.235384027512418714e-01
2.235384027512418714e-01
2.334734428735192879e-01
2.334734428735192879e-01
2.334734428735192879e-01
2.277416889568207869e-01
2.277416889568207869e-01
2.239205196790217678e-01
2.239205196790217678e-01
2.239205196790217678e-01
2.311807413068398820e-01
2.311807413068398820e-01
2.495223538402751295e-01
2.495223538402751295e-01
2.495223538402751295e-01
2.204814673290026728e-01
2.204814673290026728e-01
2.445548337791364213e-01
2.445548337791364213e-01
2.445548337791364213e-01
2.204814673290026728e-01
2.204814673290026728e-01
2.227741688956820787e-01
2.227741688956820787e-01
2.227741688956820787e-01
2.346197936568590048e-01
2.346197936568590048e-01
2.372946121513183071e-01
2.372946121513183071e-01
2.372946121513183071e-01
2.464654184180359309e-01
2.464654184180359309e-01
2.193351165456629837e-01
2.193351165456629837e-01
2.193351165456629837e-01
2.143675964845242754e-01
2.143675964845242754e-01
2.449369507069163177e-01
2.449369507069163177e-01
2.449369507069163177e-01
2.181887657623232668e-01
2.181887657623232668e-01
2.128391287734046622e-01
2.128391287734046622e-01
2.128391287734046622e-01
2.227741688956820787e-01
2.227741688956820787e-01
2.185708826901031632e-01
2.185708826901031632e-01
2.185708826901031632e-01
2.468475353458158272e-01
2.468475353458158272e-01
2.372946121513183071e-01
2.372946121513183071e-01
2.372946121513183071e-01
2.105464272067252562e-01
2.105464272067252562e-01
2.174245319067634741e-01
2.174245319067634741e-01
2.174245319067634741e-01
2.197172334734428800e-01
2.197172334734428800e-01
2.422621322124570153e-01
2.422621322124570153e-01
2.422621322124570153e-01
2.139854795567443513e-01
2.139854795567443513e-01
2.181887657623232668e-01
2.181887657623232668e-01
2.181887657623232668e-01
2.223920519679021823e-01
2.223920519679021823e-01
2.407336645013374021e-01
2.407336645013374021e-01
2.407336645013374021e-01
2.338555598012991843e-01
2.338555598012991843e-01
2.105464272067252562e-01
2.105464272067252562e-01
2.105464272067252562e-01
2.055789071455865480e-01
2.055789071455865480e-01
2.220099350401222860e-01
2.220099350401222860e-01
2.220099350401222860e-01
2.036683225066870384e-01
2.036683225066870384e-01
2.330913259457393916e-01
2.330913259457393916e-01
2.330913259457393916e-01
2.044325563622468589e-01
2.044325563622468589e-01
2.036683225066870384e-01
2.036683225066870384e-01
2.036683225066870384e-01
2.403515475735575058e-01
2.403515475735575058e-01
2.250668704623614846e-01
2.250668704623614846e-01
2.250668704623614846e-01
2.239205196790217678e-01
2.239205196790217678e-01
2.254489873901413810e-01
2.254489873901413810e-01
2.254489873901413810e-01
2.342376767290791084e-01
2.342376767290791084e-01
2.185708826901031632e-01
2.185708826901031632e-01
2.185708826901031632e-01
2.277416889568207869e-01
2.277416889568207869e-01
2.074894917844860576e-01
2.074894917844860576e-01
2.074894917844860576e-01
2.342376767290791084e-01
2.342376767290791084e-01
2.304165074512800893e-01
2.304165074512800893e-01
2.304165074512800893e-01
2.067252579289262648e-01
2.067252579289262648e-01
2.223920519679021823e-01
2.223920519679021823e-01
2.223920519679021823e-01
2.006113870844478397e-01
2.006113870844478397e-01
2.147497134123041718e-01
2.147497134123041718e-01
2.147497134123041718e-01
2.262132212457011737e-01
2.262132212457011737e-01
1.987008024455483302e-01
1.987008024455483302e-01
1.987008024455483302e-01
1.933511654566297255e-01
1.933511654566297255e-01
2.013756209400076325e-01
2.013756209400076325e-01
2.013756209400076325e-01
2.002292701566679434e-01
2.002292701566679434e-01
1.918226977455101123e-01
1.918226977455101123e-01
1.918226977455101123e-01
2.032862055789071420e-01
2.032862055789071420e-01
1.929690485288498292e-01
1.929690485288498292e-01
1.929690485288498292e-01
2.254489873901413810e-01
2.254489873901413810e-01
2.220099350401222860e-01
2.220099350401222860e-01
2.220099350401222860e-01
2.067252579289262648e-01
2.067252579289262648e-01
2.029040886511272457e-01
2.029040886511272457e-01
2.197172334734428800e-01
2.197172334734428800e-01
2.197172334734428800e-01
1.857088269010317150e-01
1.857088269010317150e-01
1.864730607565915077e-01
1.864730607565915077e-01
1.864730607565915077e-01
1.960259839510890278e-01
1.960259839510890278e-01
1.987008024455483302e-01
1.987008024455483302e-01
1.987008024455483302e-01
2.063431410011463407e-01
2.063431410011463407e-01
1.826518914787925163e-01
1.826518914787925163e-01
1.826518914787925163e-01
1.803591899121131104e-01
1.803591899121131104e-01
1.769201375620939876e-01
1.769201375620939876e-01
1.769201375620939876e-01
2.036683225066870384e-01
2.036683225066870384e-01
1.784486052732136008e-01
1.784486052732136008e-01
1.784486052732136008e-01
1.803591899121131104e-01
1.803591899121131104e-01
1.880015284677111209e-01
1.880015284677111209e-01
1.880015284677111209e-01
1.841803591899121018e-01
1.841803591899121018e-01
1.868551776843714041e-01
1.868551776843714041e-01
1.868551776843714041e-01
1.788307222009934971e-01
1.788307222009934971e-01
1.734810852120748925e-01
1.734810852120748925e-01
1.734810852120748925e-01
1.807413068398930067e-01
1.807413068398930067e-01
2.044325563622468589e-01
2.044325563622468589e-01
2.044325563622468589e-01
1.880015284677111209e-01
1.880015284677111209e-01
2.055789071455865480e-01
2.055789071455865480e-01
2.055789071455865480e-01
1.711883836453954866e-01
1.711883836453954866e-01
2.063431410011463407e-01
2.063431410011463407e-01
2.063431410011463407e-01
1.776843714176538080e-01
1.776843714176538080e-01
1.929690485288498292e-01
1.929690485288498292e-01
1.929690485288498292e-01
2.032862055789071420e-01
2.032862055789071420e-01
1.933511654566297255e-01
1.933511654566297255e-01
1.933511654566297255e-01
2.055789071455865480e-01
2.055789071455865480e-01
1.979365685899885374e-01
1.979365685899885374e-01
1.979365685899885374e-01
1.769201375620939876e-01
1.769201375620939876e-01
2.036683225066870384e-01
2.036683225066870384e-01
2.036683225066870384e-01
2.078716087122659539e-01
2.078716087122659539e-01
2.067252579289262648e-01
2.067252579289262648e-01
2.067252579289262648e-01
2.021398547955674529e-01
2.021398547955674529e-01
2.071073748567061612e-01
2.071073748567061612e-01
2.071073748567061612e-01
1.746274359954146094e-01
1.746274359954146094e-01
1.708062667176155902e-01
1.708062667176155902e-01
1.708062667176155902e-01
1.799770729843332140e-01
1.799770729843332140e-01
1.795949560565533176e-01
1.795949560565533176e-01
1.795949560565533176e-01
1.948796331677493388e-01
1.948796331677493388e-01
2.040504394344669348e-01
2.040504394344669348e-01
2.040504394344669348e-01
1.967902178066488483e-01
1.967902178066488483e-01
1.700420328620557975e-01
1.700420328620557975e-01
1.700420328620557975e-01
1.776843714176538080e-01
1.776843714176538080e-01
1.761559037065341948e-01
1.761559037065341948e-01
1.761559037065341948e-01
1.818876576232326958e-01
1.818876576232326958e-01
1.666029805120366747e-01
1.666029805120366747e-01
1.666029805120366747e-01
1.883836453954910173e-01
1.883836453954910173e-01
1.780664883454337044e-01
1.780664883454337044e-01
1.780664883454337044e-01
1.742453190676346853e-01
1.742453190676346853e-01
1.975544516622086411e-01
1.975544516622086411e-01
1.975544516622086411e-01
2.002292701566679434e-01
2.002292701566679434e-01
1.669850974398165711e-01
1.669850974398165711e-01
1.669850974398165711e-01
1.990829193733282265e-01
1.990829193733282265e-01
1.635460450897974760e-01
1.635460450897974760e-01
1.635460450897974760e-01
2.017577378677875566e-01
2.017577378677875566e-01
1.990829193733282265e-01
1.990829193733282265e-01
1.990829193733282265e-01
1.944975162399694424e-01
1.944975162399694424e-01
2.021398547955674529e-01
2.021398547955674529e-01
2.021398547955674529e-01
1.883836453954910173e-01
1.883836453954910173e-01
1.891478792510508100e-01
1.891478792510508100e-01
1.891478792510508100e-01
1.692777990064959770e-01
1.692777990064959770e-01
2.032862055789071420e-01
2.032862055789071420e-01
2.032862055789071420e-01
1.944975162399694424e-01
1.944975162399694424e-01
1.837982422621322054e-01
1.837982422621322054e-01
1.837982422621322054e-01
2.086358425678257467e-01
2.086358425678257467e-01
1.795949560565533176e-01
1.795949560565533176e-01
1.795949560565533176e-01
1.818876576232326958e-01
1.818876576232326958e-01
2.101643102789453599e-01
2.101643102789453599e-01
2.101643102789453599e-01
2.021398547955674529e-01
2.021398547955674529e-01
2.132212457011845586e-01
2.132212457011845586e-01
2.132212457011845586e-01
2.350019105846389011e-01
2.350019105846389011e-01
2.243026366068016919e-01
2.243026366068016919e-01
2.243026366068016919e-01
2.147497134123041718e-01
2.147497134123041718e-01
2.235384027512418714e-01
2.235384027512418714e-01
2.235384027512418714e-01
2.487581199847153091e-01
2.487581199847153091e-01
2.598395108903324147e-01
2.598395108903324147e-01
2.598395108903324147e-01
2.521971723347344319e-01
2.521971723347344319e-01
2.770347726404279731e-01
2.770347726404279731e-01
2.770347726404279731e-01
2.564004585403133474e-01
2.564004585403133474e-01
2.892625143293847678e-01
2.892625143293847678e-01
2.716851356515093685e-01
2.716851356515093685e-01
2.716851356515093685e-01
2.793274742071073513e-01
2.793274742071073513e-01
2.953763851738632207e-01
2.953763851738632207e-01
2.953763851738632207e-01
3.030187237294612035e-01
3.030187237294612035e-01
3.118074130683989309e-01
3.118074130683989309e-01
3.118074130683989309e-01
3.037829575850209962e-01
3.037829575850209962e-01
3.030187237294612035e-01
3.030187237294612035e-01
3.030187237294612035e-01
3.370271303018723685e-01
3.370271303018723685e-01
3.442873519296905105e-01
3.442873519296905105e-01
3.442873519296905105e-01
3.163928162017577428e-01
3.163928162017577428e-01
3.484906381352693705e-01
3.484906381352693705e-01
3.484906381352693705e-01
3.515475735575085969e-01
3.515475735575085969e-01
3.408482995796713877e-01
3.408482995796713877e-01
3.408482995796713877e-01
3.481085212074894741e-01
3.481085212074894741e-01
3.419946503630110768e-01
3.419946503630110768e-01
3.419946503630110768e-01
3.500191058463890115e-01
3.500191058463890115e-01
3.477264042797095778e-01
3.477264042797095778e-01
3.477264042797095778e-01
3.847917462743599692e-01
3.847917462743599692e-01
3.847917462743599692e-01
3.847917462743599692e-01
3.847917462743599692e-01
3.767672907909820346e-01
3.767672907909820346e-01
3.805884600687810537e-01
3.805884600687810537e-01
3.805884600687810537e-01
3.916698509743981593e-01
3.916698509743981593e-01
3.893771494077187811e-01
3.893771494077187811e-01
3.893771494077187811e-01
3.618647306075659098e-01
3.618647306075659098e-01
3.580435613297668906e-01
3.580435613297668906e-01
3.580435613297668906e-01
3.809705769965609501e-01
3.809705769965609501e-01
3.771494077187619309e-01
3.771494077187619309e-01
3.771494077187619309e-01
3.855559801299197620e-01
3.855559801299197620e-01
3.656858998853649290e-01
3.656858998853649290e-01
3.656858998853649290e-01
3.889950324799388848e-01
3.889950324799388848e-01
3.874665647688192438e-01
3.874665647688192438e-01
3.874665647688192438e-01
3.580435613297668906e-01
3.580435613297668906e-01
3.725640045854031190e-01
3.725640045854031190e-01
3.725640045854031190e-01
3.515475735575085969e-01
3.515475735575085969e-01
3.614826136797860134e-01
3.614826136797860134e-01
3.614826136797860134e-01
3.576614444019869943e-01
3.576614444019869943e-01
3.817348108521207428e-01
3.817348108521207428e-01
3.817348108521207428e-01
3.500191058463890115e-01
3.500191058463890115e-01
3.515475735575085969e-01
3.515475735575085969e-01
3.515475735575085969e-01
3.484906381352693705e-01
3.484906381352693705e-01
3.775315246465418273e-01
3.775315246465418273e-01
3.775315246465418273e-01
3.469621704241497850e-01
3.469621704241497850e-01
3.717997707298433263e-01
3.717997707298433263e-01
3.717997707298433263e-01
3.542223920519679270e-01
3.542223920519679270e-01
3.633931983186854953e-01
3.633931983186854953e-01
3.633931983186854953e-01
3.354986625907527831e-01
3.354986625907527831e-01
3.580435613297668906e-01
3.580435613297668906e-01
3.580435613297668906e-01
3.419946503630110768e-01
3.419946503630110768e-01
3.561329766908674088e-01
3.561329766908674088e-01
3.561329766908674088e-01
3.630110813909055989e-01
3.630110813909055989e-01
3.316774933129537639e-01
3.316774933129537639e-01
3.316774933129537639e-01
3.603362628964463243e-01
3.603362628964463243e-01
3.312953763851738676e-01
3.312953763851738676e-01
3.312953763851738676e-01
3.431410011463507659e-01
3.431410011463507659e-01
3.538402751241879751e-01
3.538402751241879751e-01
3.538402751241879751e-01
3.580435613297668906e-01
3.580435613297668906e-01
3.362628964463125758e-01
3.362628964463125758e-01
3.362628964463125758e-01
3.270920901795949520e-01
3.270920901795949520e-01
3.374092472296522649e-01
3.374092472296522649e-01
3.374092472296522649e-01
3.194497516239969692e-01
3.194497516239969692e-01
3.385555980129919540e-01
3.385555980129919540e-01
3.385555980129919540e-01
3.205961024073366583e-01
3.205961024073366583e-01
3.301490256018341785e-01
3.301490256018341785e-01
3.301490256018341785e-01
3.469621704241497850e-01
3.469621704241497850e-01
3.274742071073748484e-01
3.274742071073748484e-01
3.274742071073748484e-01
3.156285823461979501e-01
3.156285823461979501e-01
3.439052350019105586e-01
3.439052350019105586e-01
3.439052350019105586e-01
3.408482995796713877e-01
3.408482995796713877e-01
3.141001146350783091e-01
3.141001146350783091e-01
3.141001146350783091e-01
3.018723729461215144e-01
3.018723729461215144e-01
3.007260221627818253e-01
3.007260221627818253e-01
3.007260221627818253e-01
3.102789453572793454e-01
3.102789453572793454e-01
3.274742071073748484e-01
3.274742071073748484e-01
3.274742071073748484e-01
3.175391669850974319e-01
3.175391669850974319e-01
3.183034008406572246e-01
3.183034008406572246e-01
3.183034008406572246e-01
3.053114252961406372e-01
3.053114252961406372e-01
3.045471914405808445e-01
3.045471914405808445e-01
3.045471914405808445e-01
2.984333205961023916e-01
2.984333205961023916e-01
2.820022927015666814e-01
2.820022927015666814e-01
2.820022927015666814e-01
2.774168895682078695e-01
2.774168895682078695e-01
2.777990064959877659e-01
2.777990064959877659e-01
2.777990064959877659e-01
2.701566679403897830e-01
2.701566679403897830e-01
2.705387848681696794e-01
2.705387848681696794e-01
2.682460833014902457e-01
2.682460833014902457e-01
2.682460833014902457e-01
2.632785632403515375e-01
2.632785632403515375e-01
2.766526557126480768e-01
2.766526557126480768e-01
2.766526557126480768e-01
2.613679786014520556e-01
2.613679786014520556e-01
2.556362246847535546e-01
2.556362246847535546e-01
2.556362246847535546e-01
2.762705387848681804e-01
2.762705387848681804e-01
2.839128773404661632e-01
2.839128773404661632e-01
2.839128773404661632e-01
2.686282002292701421e-01
2.686282002292701421e-01
2.709209017959495758e-01
2.709209017959495758e-01
2.709209017959495758e-01
2.812380588460068886e-01
2.812380588460068886e-01
2.537256400458540173e-01
2.537256400458540173e-01
2.537256400458540173e-01
2.663354986625907639e-01
2.663354986625907639e-01
2.651891478792510748e-01
2.651891478792510748e-01
2.651891478792510748e-01
2.628964463125716411e-01
2.628964463125716411e-01
2.426442491402369117e-01
2.426442491402369117e-01
2.426442491402369117e-01
2.369124952235384107e-01
2.369124952235384107e-01
2.399694306457776094e-01
2.399694306457776094e-01
2.399694306457776094e-01
2.571646923958731401e-01
2.571646923958731401e-01
2.697745510126098312e-01
2.697745510126098312e-01
2.697745510126098312e-01
2.327092090179594952e-01
2.327092090179594952e-01
2.537256400458540173e-01
2.537256400458540173e-01
2.537256400458540173e-01
2.323270920901795988e-01
2.323270920901795988e-01
2.376767290790982035e-01
2.376767290790982035e-01
2.376767290790982035e-01
2.392051967902178167e-01
2.392051967902178167e-01
2.380588460068780998e-01
2.380588460068780998e-01
2.380588460068780998e-01
2.388230798624378926e-01
2.388230798624378926e-01
2.541077569736339137e-01
2.541077569736339137e-01
2.541077569736339137e-01
2.518150554069545355e-01
2.518150554069545355e-01
2.529614061902942246e-01
2.529614061902942246e-01
2.529614061902942246e-01
2.464654184180359309e-01
2.464654184180359309e-01
2.254489873901413810e-01
2.254489873901413810e-01
2.254489873901413810e-01
2.384409629346579962e-01
2.384409629346579962e-01
2.491402369124952332e-01
2.491402369124952332e-01
2.491402369124952332e-01
2.521971723347344319e-01
2.521971723347344319e-01
2.357661444401986939e-01
2.357661444401986939e-01
2.357661444401986939e-01
2.544898739014138100e-01
2.544898739014138100e-01
2.499044707680550259e-01
2.499044707680550259e-01
2.499044707680550259e-01
2.541077569736339137e-01
2.541077569736339137e-01
2.311807413068398820e-01
2.311807413068398820e-01
2.311807413068398820e-01
2.166602980512036813e-01
2.166602980512036813e-01
2.296522735957202965e-01
2.296522735957202965e-01
2.296522735957202965e-01
2.399694306457776094e-01
2.399694306457776094e-01
2.288880397401604760e-01
2.288880397401604760e-01
2.288880397401604760e-01
2.235384027512418714e-01
2.235384027512418714e-01
2.235384027512418714e-01
2.235384027512418714e-01
2.235384027512418714e-01
2.399694306457776094e-01
2.399694306457776094e-01
2.243026366068016919e-01
2.243026366068016919e-01
2.243026366068016919e-01
2.197172334734428800e-01
2.197172334734428800e-01
2.334734428735192879e-01
2.334734428735192879e-01
2.334734428735192879e-01
2.235384027512418714e-01
2.235384027512418714e-01
2.231562858234619751e-01
2.231562858234619751e-01
2.231562858234619751e-01
2.422621322124570153e-01
2.422621322124570153e-01
2.476117692013756200e-01
2.476117692013756200e-01
2.476117692013756200e-01
2.216278181123423896e-01
2.216278181123423896e-01
2.395873137179977130e-01
2.395873137179977130e-01
2.395873137179977130e-01
2.155139472678639645e-01
2.155139472678639645e-01
2.353840275124187975e-01
2.353840275124187975e-01
2.353840275124187975e-01
2.185708826901031632e-01
2.185708826901031632e-01
2.311807413068398820e-01
2.311807413068398820e-01
2.311807413068398820e-01
2.464654184180359309e-01
2.464654184180359309e-01
2.330913259457393916e-01
2.330913259457393916e-01
2.330913259457393916e-01
2.124570118456247658e-01
2.124570118456247658e-01
2.281238058846006833e-01
2.281238058846006833e-01
2.281238058846006833e-01
2.151318303400840681e-01
2.151318303400840681e-01
2.143675964845242754e-01
2.143675964845242754e-01
2.143675964845242754e-01
2.330913259457393916e-01
2.330913259457393916e-01
2.281238058846006833e-01
2.281238058846006833e-01
2.281238058846006833e-01
2.216278181123423896e-01
2.216278181123423896e-01
2.204814673290026728e-01
2.204814673290026728e-01
2.204814673290026728e-01
2.036683225066870384e-01
2.036683225066870384e-01
2.307986243790599856e-01
2.307986243790599856e-01
2.307986243790599856e-01
2.132212457011845586e-01
2.132212457011845586e-01
2.334734428735192879e-01
2.334734428735192879e-01
2.334734428735192879e-01
2.109285441345051526e-01
2.109285441345051526e-01
2.350019105846389011e-01
2.350019105846389011e-01
2.350019105846389011e-01
2.071073748567061612e-01
2.071073748567061612e-01
2.223920519679021823e-01
2.223920519679021823e-01
2.223920519679021823e-01
2.166602980512036813e-01
2.166602980512036813e-01
2.239205196790217678e-01
2.239205196790217678e-01
2.239205196790217678e-01
2.273595720290408906e-01
2.273595720290408906e-01
1.948796331677493388e-01
1.948796331677493388e-01
2.243026366068016919e-01
2.243026366068016919e-01
2.243026366068016919e-01
1.990829193733282265e-01
1.990829193733282265e-01
2.082537256400458503e-01
2.082537256400458503e-01
2.082537256400458503e-01
2.074894917844860576e-01
2.074894917844860576e-01
2.025219717233473493e-01
2.025219717233473493e-01
2.025219717233473493e-01
2.029040886511272457e-01
2.029040886511272457e-01
2.239205196790217678e-01
2.239205196790217678e-01
2.239205196790217678e-01
1.929690485288498292e-01
1.929690485288498292e-01
1.952617500955292351e-01
1.952617500955292351e-01
1.952617500955292351e-01
2.262132212457011737e-01
2.262132212457011737e-01
2.162781811234237572e-01
2.162781811234237572e-01
2.162781811234237572e-01
1.853267099732518186e-01
1.853267099732518186e-01
1.883836453954910173e-01
1.883836453954910173e-01
1.883836453954910173e-01
2.143675964845242754e-01
2.143675964845242754e-01
1.876194115399312246e-01
1.876194115399312246e-01
1.876194115399312246e-01
2.036683225066870384e-01
2.036683225066870384e-01
1.849445930454719222e-01
1.849445930454719222e-01
1.849445930454719222e-01
1.910584638899503196e-01
1.910584638899503196e-01
2.094000764233855671e-01
2.094000764233855671e-01
2.094000764233855671e-01
1.925869316010699328e-01
1.925869316010699328e-01
1.769201375620939876e-01
1.769201375620939876e-01
1.769201375620939876e-01
1.723347344287352034e-01
1.723347344287352034e-01
1.899121131066106305e-01
1.899121131066106305e-01
1.899121131066106305e-01
1.944975162399694424e-01
1.944975162399694424e-01
1.727168513565150998e-01
1.727168513565150998e-01
1.727168513565150998e-01
1.792128391287733935e-01
1.792128391287733935e-01
2.044325563622468589e-01
2.044325563622468589e-01
2.044325563622468589e-01
1.975544516622086411e-01
1.975544516622086411e-01
1.677493312953763915e-01
1.677493312953763915e-01
1.677493312953763915e-01
1.868551776843714041e-01
