1.803591899121131104e-01
1.803591899121131104e-01
1.803591899121131104e-01
2.082537256400458503e-01
2.082537256400458503e-01
1.753916698509744021e-01
1.753916698509744021e-01
1.753916698509744021e-01
1.841803591899121018e-01
1.841803591899121018e-01
1.880015284677111209e-01
1.880015284677111209e-01
1.967902178066488483e-01
1.967902178066488483e-01
1.967902178066488483e-01
1.975544516622086411e-01
1.975544516622086411e-01
1.998471532288880470e-01
1.998471532288880470e-01
1.998471532288880470e-01
1.646923958731371929e-01
1.646923958731371929e-01
1.658387466564768820e-01
1.658387466564768820e-01
1.658387466564768820e-01
1.761559037065341948e-01
1.761559037065341948e-01
1.723347344287352034e-01
1.723347344287352034e-01
1.723347344287352034e-01
1.780664883454337044e-01
1.780664883454337044e-01
1.539931218952999559e-01
1.539931218952999559e-01
1.539931218952999559e-01
1.776843714176538080e-01
1.776843714176538080e-01
1.532288880397401631e-01
1.532288880397401631e-01
1.532288880397401631e-01
1.807413068398930067e-01
1.807413068398930067e-01
1.753916698509744021e-01
1.753916698509744021e-01
1.753916698509744021e-01
1.784486052732136008e-01
1.784486052732136008e-01
1.551394726786396727e-01
1.551394726786396727e-01
1.551394726786396727e-01
1.444401987008024357e-01
1.444401987008024357e-01
1.482613679786014549e-01
1.482613679786014549e-01
1.482613679786014549e-01
1.436759648452426430e-01
1.436759648452426430e-01
1.436759648452426430e-01
1.436759648452426430e-01
1.436759648452426430e-01
1.410011463507833407e-01
1.410011463507833407e-01
1.367978601452044252e-01
1.367978601452044252e-01
1.367978601452044252e-01
1.597248758119984846e-01
1.597248758119984846e-01
1.329766908674054338e-01
1.329766908674054338e-01
1.329766908674054338e-01
1.490256018341612476e-01
1.490256018341612476e-01
1.520825372564004463e-01
1.520825372564004463e-01
1.520825372564004463e-01
1.337409247229652265e-01
1.337409247229652265e-01
1.455865494841421526e-01
1.455865494841421526e-01
1.455865494841421526e-01
1.452044325563622562e-01
1.452044325563622562e-01
1.360336262896446324e-01
1.360336262896446324e-01
1.360336262896446324e-01
1.241880015284677063e-01
1.241880015284677063e-01
1.119602598395108839e-01
1.119602598395108839e-01
1.119602598395108839e-01
1.104317921283912846e-01
1.104317921283912846e-01
1.089033244172716852e-01
1.089033244172716852e-01
1.089033244172716852e-01
1.249522353840275130e-01
1.249522353840275130e-01
1.234237676729079136e-01
1.234237676729079136e-01
1.234237676729079136e-01
1.310661062285059242e-01
1.310661062285059242e-01
1.257164692395873196e-01
1.257164692395873196e-01
1.257164692395873196e-01
1.146350783339702001e-01
1.146350783339702001e-01
1.092854413450515816e-01
1.092854413450515816e-01
1.092854413450515816e-01
1.260985861673672159e-01
1.260985861673672159e-01
1.310661062285059242e-01
1.310661062285059242e-01
1.310661062285059242e-01
1.184562476117692054e-01
1.184562476117692054e-01
1.264807030951471123e-01
1.264807030951471123e-01
1.264807030951471123e-01
1.257164692395873196e-01
1.257164692395873196e-01
1.283912877340466219e-01
1.283912877340466219e-01
1.283912877340466219e-01
1.184562476117692054e-01
1.184562476117692054e-01
9.209017959495605088e-02
9.209017959495605088e-02
9.209017959495605088e-02
9.438288116163545682e-02
9.438288116163545682e-02
8.750477646159725287e-02
8.750477646159725287e-02
8.750477646159725287e-02
1.157814291173099031e-01
1.157814291173099031e-01
1.146350783339702001e-01
1.146350783339702001e-01
1.146350783339702001e-01
1.001146350783339717e-01
1.001146350783339717e-01
1.104317921283912846e-01
1.104317921283912846e-01
1.104317921283912846e-01
1.096675582728314918e-01
1.096675582728314918e-01
1.027894535727932740e-01
1.027894535727932740e-01
1.027894535727932740e-01
1.001146350783339717e-01
1.001146350783339717e-01
1.100496752006113882e-01
1.100496752006113882e-01
1.100496752006113882e-01
7.833397019487962909e-02
7.833397019487962909e-02
7.833397019487962909e-02
7.833397019487962909e-02
7.833397019487962909e-02
7.642338555598013339e-02
7.642338555598013339e-02
7.527703477264043042e-02
7.527703477264043042e-02
7.527703477264043042e-02
8.788689338937714923e-02
8.788689338937714923e-02
7.948032097821933206e-02
7.948032097821933206e-02
7.948032097821933206e-02
1.062285059228123829e-01
1.062285059228123829e-01
1.001146350783339717e-01
1.001146350783339717e-01
1.001146350783339717e-01
9.667558272831486277e-02
9.667558272831486277e-02
8.215513947267863437e-02
8.215513947267863437e-02
8.215513947267863437e-02
9.400076423385556046e-02
9.400076423385556046e-02
9.017959495605655518e-02
9.017959495605655518e-02
9.017959495605655518e-02
9.170806266717615451e-02
9.170806266717615451e-02
7.222009935040121786e-02
7.222009935040121786e-02
7.222009935040121786e-02
7.489491784486053405e-02
7.489491784486053405e-02
7.948032097821933206e-02
7.948032097821933206e-02
7.948032097821933206e-02
9.094382881161634791e-02
9.094382881161634791e-02
6.954528085594191555e-02
6.954528085594191555e-02
6.954528085594191555e-02
9.400076423385556046e-02
9.400076423385556046e-02
7.336645013374092084e-02
7.336645013374092084e-02
7.336645013374092084e-02
8.941536110049674857e-02
8.941536110049674857e-02
7.374856706152083108e-02
7.374856706152083108e-02
7.374856706152083108e-02
8.291937332823844098e-02
8.291937332823844098e-02
9.170806266717615451e-02
9.170806266717615451e-02
9.170806266717615451e-02
6.725257928926250961e-02
6.725257928926250961e-02
8.788689338937714923e-02
8.788689338937714923e-02
6.190294230034390499e-02
6.190294230034390499e-02
6.190294230034390499e-02
8.444784103935804032e-02
8.444784103935804032e-02
5.961024073366449905e-02
5.961024073366449905e-02
5.961024073366449905e-02
6.839893007260221258e-02
6.839893007260221258e-02
6.304929308368360796e-02
6.304929308368360796e-02
6.304929308368360796e-02
5.731753916698510004e-02
5.731753916698510004e-02
8.482995796713795056e-02
8.482995796713795056e-02
8.482995796713795056e-02
8.521207489491784692e-02
8.521207489491784692e-02
5.426060374474589443e-02
5.426060374474589443e-02
5.426060374474589443e-02
5.349636988918608782e-02
5.349636988918608782e-02
7.107374856706151489e-02
7.107374856706151489e-02
7.107374856706151489e-02
5.043943446694688915e-02
5.043943446694688915e-02
5.922812380588460268e-02
5.922812380588460268e-02
5.922812380588460268e-02
8.215513947267863437e-02
8.215513947267863437e-02
4.891096675582728287e-02
4.891096675582728287e-02
4.891096675582728287e-02
5.235001910584639179e-02
5.235001910584639179e-02
5.961024073366449905e-02
5.961024073366449905e-02
5.961024073366449905e-02
4.738249904470768353e-02
4.738249904470768353e-02
4.661826518914787693e-02
4.661826518914787693e-02
4.661826518914787693e-02
5.387848681696599112e-02
5.387848681696599112e-02
5.082155139472678551e-02
5.082155139472678551e-02
5.082155139472678551e-02
7.107374856706151489e-02
7.107374856706151489e-02
7.527703477264043042e-02
7.527703477264043042e-02
7.527703477264043042e-02
6.343141001146350433e-02
6.343141001146350433e-02
5.846388995032479607e-02
5.846388995032479607e-02
5.846388995032479607e-02
6.457776079480320730e-02
6.457776079480320730e-02
7.527703477264043042e-02
7.527703477264043042e-02
7.527703477264043042e-02
7.833397019487962909e-02
7.833397019487962909e-02
7.374856706152083108e-02
7.374856706152083108e-02
7.374856706152083108e-02
5.464272067252579079e-02
5.464272067252579079e-02
7.833397019487962909e-02
7.833397019487962909e-02
7.833397019487962909e-02
7.222009935040121786e-02
7.222009935040121786e-02
4.661826518914787693e-02
4.661826518914787693e-02
4.661826518914787693e-02
4.012227741688956933e-02
4.012227741688956933e-02
5.120366832250668881e-02
5.120366832250668881e-02
5.120366832250668881e-02
7.413068398930072744e-02
7.413068398930072744e-02
3.974016048910966603e-02
3.974016048910966603e-02
3.974016048910966603e-02
4.279709591134887164e-02
4.279709591134887164e-02
5.464272067252579079e-02
5.464272067252579079e-02
5.464272067252579079e-02
3.974016048910966603e-02
3.974016048910966603e-02
6.457776079480320730e-02
6.457776079480320730e-02
6.457776079480320730e-02
7.069163163928161853e-02
7.069163163928161853e-02
4.508979747802827759e-02
4.508979747802827759e-02
4.508979747802827759e-02
4.661826518914787693e-02
4.661826518914787693e-02
6.992739778372182580e-02
6.992739778372182580e-02
6.992739778372182580e-02
5.655330531142529343e-02
5.655330531142529343e-02
6.992739778372182580e-02
6.992739778372182580e-02
6.992739778372182580e-02
7.107374856706151489e-02
7.107374856706151489e-02
4.279709591134887164e-02
4.279709591134887164e-02
4.279709591134887164e-02
6.916316392816201919e-02
6.916316392816201919e-02
6.610622850592280664e-02
6.610622850592280664e-02
6.610622850592280664e-02
5.120366832250668881e-02
5.120366832250668881e-02
4.547191440580817395e-02
4.547191440580817395e-02
4.547191440580817395e-02
5.043943446694688915e-02
5.043943446694688915e-02
6.075659151700420202e-02
6.075659151700420202e-02
6.075659151700420202e-02
6.916316392816201919e-02
6.916316392816201919e-02
6.954528085594191555e-02
6.954528085594191555e-02
6.954528085594191555e-02
7.413068398930072744e-02
7.413068398930072744e-02
5.846388995032479607e-02
5.846388995032479607e-02
5.846388995032479607e-02
4.012227741688956933e-02
4.012227741688956933e-02
6.457776079480320730e-02
6.457776079480320730e-02
6.457776079480320730e-02
4.470768055024837428e-02
4.470768055024837428e-02
7.107374856706151489e-02
7.107374856706151489e-02
7.107374856706151489e-02
6.648834543370271688e-02
6.648834543370271688e-02
6.495987772258310367e-02
6.495987772258310367e-02
6.495987772258310367e-02
3.935804356132976967e-02
3.935804356132976967e-02
5.961024073366449905e-02
5.961024073366449905e-02
5.961024073366449905e-02
4.126862820022927231e-02
4.126862820022927231e-02
4.470768055024837428e-02
4.470768055024837428e-02
4.470768055024837428e-02
6.075659151700420202e-02
6.075659151700420202e-02
7.183798242262132150e-02
7.183798242262132150e-02
7.183798242262132150e-02
5.922812380588460268e-02
5.922812380588460268e-02
4.585403133358807726e-02
4.585403133358807726e-02
4.585403133358807726e-02
5.235001910584639179e-02
5.235001910584639179e-02
4.623614826136798056e-02
4.623614826136798056e-02
4.623614826136798056e-02
6.801681314482231622e-02
6.801681314482231622e-02
4.929308368360718617e-02
4.929308368360718617e-02
4.929308368360718617e-02
6.954528085594191555e-02
6.954528085594191555e-02
4.547191440580817395e-02
4.547191440580817395e-02
4.547191440580817395e-02
4.776461597248757990e-02
4.776461597248757990e-02
6.801681314482231622e-02
6.801681314482231622e-02
3.859380970576996306e-02
3.859380970576996306e-02
3.859380970576996306e-02
5.120366832250668881e-02
5.120366832250668881e-02
3.477264042797095778e-02
3.477264042797095778e-02
3.477264042797095778e-02
3.018723729461215283e-02
3.018723729461215283e-02
3.668322506687046042e-02
3.668322506687046042e-02
3.668322506687046042e-02
5.922812380588460268e-02
5.922812380588460268e-02
5.502483760030569410e-02
5.502483760030569410e-02
5.502483760030569410e-02
2.674818494459304391e-02
2.674818494459304391e-02
5.005731753916698584e-02
5.005731753916698584e-02
5.005731753916698584e-02
4.279709591134887164e-02
4.279709591134887164e-02
5.961024073366449905e-02
5.961024073366449905e-02
5.961024073366449905e-02
2.980512036683224952e-02
2.980512036683224952e-02
2.865876958349255002e-02
2.865876958349255002e-02
2.865876958349255002e-02
4.012227741688956933e-02
4.012227741688956933e-02
4.814673290026748320e-02
4.814673290026748320e-02
4.814673290026748320e-02
5.158578525028658518e-02
5.158578525028658518e-02
4.547191440580817395e-02
4.547191440580817395e-02
4.547191440580817395e-02
3.630110813909056405e-02
3.630110813909056405e-02
2.330913259457393846e-02
2.330913259457393846e-02
2.330913259457393846e-02
2.904088651127244985e-02
2.904088651127244985e-02
2.483760030569354127e-02
2.483760030569354127e-02
2.483760030569354127e-02
4.661826518914787693e-02
4.661826518914787693e-02
3.974016048910966603e-02
3.974016048910966603e-02
3.974016048910966603e-02
3.400840657241115811e-02
3.400840657241115811e-02
3.591899121131066075e-02
3.591899121131066075e-02
3.591899121131066075e-02
1.681314482231562740e-02
1.681314482231562740e-02
1.681314482231562740e-02
1.681314482231562740e-02
1.681314482231562740e-02
4.623614826136798056e-02
4.623614826136798056e-02
4.508979747802827759e-02
4.508979747802827759e-02
4.508979747802827759e-02
3.324417271685135844e-02
3.324417271685135844e-02
5.082155139472678551e-02
5.082155139472678551e-02
5.082155139472678551e-02
4.814673290026748320e-02
4.814673290026748320e-02
3.744745892243026703e-02
3.744745892243026703e-02
3.744745892243026703e-02
2.980512036683224952e-02
2.980512036683224952e-02
4.050439434466946570e-02
4.050439434466946570e-02
4.050439434466946570e-02
6.992739778372182580e-02
6.992739778372182580e-02
4.432556362246847792e-02
4.432556362246847792e-02
4.432556362246847792e-02
7.604126862820022315e-02
7.604126862820022315e-02
9.285441345051585749e-02
9.285441345051585749e-02
9.285441345051585749e-02
8.291937332823844098e-02
8.291937332823844098e-02
1.008788689338937783e-01
1.008788689338937783e-01
1.008788689338937783e-01
1.104317921283912846e-01
1.104317921283912846e-01
1.104317921283912846e-01
1.104317921283912846e-01
1.104317921283912846e-01
1.425296140619029539e-01
1.425296140619029539e-01
1.318303400840657169e-01
1.318303400840657169e-01
1.318303400840657169e-01
1.562858234619793618e-01
1.562858234619793618e-01
1.715705005731753829e-01
1.715705005731753829e-01
1.715705005731753829e-01
1.975544516622086411e-01
1.975544516622086411e-01
1.807413068398930067e-01
1.807413068398930067e-01
1.807413068398930067e-01
2.265953381734810979e-01
2.265953381734810979e-01
2.063431410011463407e-01
2.063431410011463407e-01
2.063431410011463407e-01
2.185708826901031632e-01
2.185708826901031632e-01
2.586931601069927256e-01
2.586931601069927256e-01
2.586931601069927256e-01
2.476117692013756200e-01
2.476117692013756200e-01
2.797095911348873032e-01
2.797095911348873032e-01
2.797095911348873032e-01
2.735957202904088503e-01
2.735957202904088503e-01
2.770347726404279731e-01
2.770347726404279731e-01
2.770347726404279731e-01
3.125716469239587236e-01
3.125716469239587236e-01
2.965227359572029098e-01
2.965227359572029098e-01
2.965227359572029098e-01
3.351165456629728867e-01
3.351165456629728867e-01
3.454337027130301996e-01
3.454337027130301996e-01
3.454337027130301996e-01
3.274742071073748484e-01
3.274742071073748484e-01
3.404661826518914913e-01
3.404661826518914913e-01
3.404661826518914913e-01
3.786778754298815164e-01
3.786778754298815164e-01
3.836453954910202246e-01
3.836453954910202246e-01
3.836453954910202246e-01
3.622468475353458062e-01
3.622468475353458062e-01
3.691249522353840518e-01
3.691249522353840518e-01
3.691249522353840518e-01
4.065724111578142841e-01
4.065724111578142841e-01
3.874665647688192438e-01
3.874665647688192438e-01
3.874665647688192438e-01
4.195643867023309270e-01
4.195643867023309270e-01
4.203286205578907198e-01
4.203286205578907198e-01
4.203286205578907198e-01
4.081008788689338695e-01
4.081008788689338695e-01
4.203286205578907198e-01
4.203286205578907198e-01
4.203286205578907198e-01
4.222392051967902016e-01
4.222392051967902016e-01
4.283530760412686544e-01
4.283530760412686544e-01
4.283530760412686544e-01
4.543370271303018848e-01
4.543370271303018848e-01
4.405808177302254491e-01
4.405808177302254491e-01
4.405808177302254491e-01
4.482231562858234875e-01
4.482231562858234875e-01
4.585403133358808003e-01
4.585403133358808003e-01
4.585403133358808003e-01
4.520443255636224511e-01
4.520443255636224511e-01
4.803209782193351152e-01
4.803209782193351152e-01
4.803209782193351152e-01
4.833779136415743416e-01
4.833779136415743416e-01
4.761176920137561996e-01
4.761176920137561996e-01
4.715322888803973878e-01
4.715322888803973878e-01
4.715322888803973878e-01
4.894917844860527389e-01
4.894917844860527389e-01
4.841421474971341343e-01
4.841421474971341343e-01
4.841421474971341343e-01
4.898739014138326353e-01
4.898739014138326353e-01
4.921666029805120135e-01
4.921666029805120135e-01
4.921666029805120135e-01
5.059228123805884492e-01
5.059228123805884492e-01
5.005731753916699001e-01
5.005731753916699001e-01
5.005731753916699001e-01
5.150936186473060729e-01
5.150936186473060729e-01
5.349636988918609060e-01
5.349636988918609060e-01
5.349636988918609060e-01
5.143293847917462802e-01
5.143293847917462802e-01
5.319067634696217350e-01
5.319067634696217350e-01
5.319067634696217350e-01
5.464272067252579079e-01
5.464272067252579079e-01
5.150936186473060729e-01
5.150936186473060729e-01
5.150936186473060729e-01
5.288498280473824531e-01
5.288498280473824531e-01
5.215896064195644222e-01
5.215896064195644222e-01
5.215896064195644222e-01
5.582728314864348063e-01
5.582728314864348063e-01
5.582728314864348063e-01
5.582728314864348063e-01
5.582728314864348063e-01
5.598012991975545027e-01
5.598012991975545027e-01
5.533053114252961535e-01
5.533053114252961535e-01
5.533053114252961535e-01
5.364921666029804914e-01
5.364921666029804914e-01
5.479556744363774934e-01
5.479556744363774934e-01
5.479556744363774934e-01
5.433702713030187370e-01
5.433702713030187370e-01
5.727932747420710902e-01
5.727932747420710902e-01
5.727932747420710902e-01
5.647688192586931555e-01
5.647688192586931555e-01
5.705005731753917120e-01
5.705005731753917120e-01
5.705005731753917120e-01
5.708826901031716083e-01
5.708826901031716083e-01
5.769965609476499502e-01
5.769965609476499502e-01
5.769965609476499502e-01
5.785250286587695356e-01
5.785250286587695356e-01
5.617118838364539846e-01
5.617118838364539846e-01
5.617118838364539846e-01
5.777607948032097429e-01
5.777607948032097429e-01
5.789071455865494320e-01
5.789071455865494320e-01
5.789071455865494320e-01
5.773786778754298465e-01
5.773786778754298465e-01
5.831104317921284030e-01
5.831104317921284030e-01
5.831104317921284030e-01
5.777607948032097429e-01
5.777607948032097429e-01
5.682078716087122228e-01
5.682078716087122228e-01
5.682078716087122228e-01
5.582728314864348063e-01
5.582728314864348063e-01
5.662972869698127409e-01
5.662972869698127409e-01
5.662972869698127409e-01
5.647688192586931555e-01
5.647688192586931555e-01
5.594191822697746064e-01
5.594191822697746064e-01
5.594191822697746064e-01
5.899885364921666486e-01
5.899885364921666486e-01
5.785250286587695356e-01
5.785250286587695356e-01
5.785250286587695356e-01
5.754680932365303647e-01
5.754680932365303647e-01
5.655330531142529482e-01
5.655330531142529482e-01
5.655330531142529482e-01
5.662972869698127409e-01
5.662972869698127409e-01
5.513947267863966717e-01
5.513947267863966717e-01
5.513947267863966717e-01
5.651509361864730518e-01
5.651509361864730518e-01
5.578907145586549099e-01
5.578907145586549099e-01
5.578907145586549099e-01
5.762323270920901574e-01
5.762323270920901574e-01
5.842567825754680921e-01
5.842567825754680921e-01
5.842567825754680921e-01
5.842567825754680921e-01
5.842567825754680921e-01
5.620940007642338809e-01
5.620940007642338809e-01
5.620940007642338809e-01
5.533053114252961535e-01
5.533053114252961535e-01
5.781429117309896393e-01
5.781429117309896393e-01
5.781429117309896393e-01
5.785250286587695356e-01
5.785250286587695356e-01
5.739396255254107793e-01
5.739396255254107793e-01
5.739396255254107793e-01
5.479556744363774934e-01
5.479556744363774934e-01
5.498662590752770862e-01
5.498662590752770862e-01
5.498662590752770862e-01
5.380206343141000769e-01
5.380206343141000769e-01
5.662972869698127409e-01
5.662972869698127409e-01
5.662972869698127409e-01
5.586549484142147026e-01
5.586549484142147026e-01
5.361100496752005951e-01
5.361100496752005951e-01
5.361100496752005951e-01
5.452808559419182188e-01
5.452808559419182188e-01
5.250286587695834895e-01
5.250286587695834895e-01
5.250286587695834895e-01
5.410775697363393588e-01
5.410775697363393588e-01
5.448987390141383225e-01
5.448987390141383225e-01
5.448987390141383225e-01
5.429881543752388406e-01
5.429881543752388406e-01
5.269392434084829713e-01
5.269392434084829713e-01
5.269392434084829713e-01
5.051585785250286564e-01
5.051585785250286564e-01
5.311425296140619423e-01
5.311425296140619423e-01
5.311425296140619423e-01
5.021016431027894855e-01
5.021016431027894855e-01
5.001910584638900037e-01
5.001910584638900037e-01
5.001910584638900037e-01
4.852884982804738234e-01
4.852884982804738234e-01
5.047764615972487601e-01
5.047764615972487601e-01
5.047764615972487601e-01
4.734428735192969251e-01
4.734428735192969251e-01
4.891096675582728426e-01
4.891096675582728426e-01
4.891096675582728426e-01
4.868169659915934089e-01
4.868169659915934089e-01
4.589224302636606967e-01
4.589224302636606967e-01
4.589224302636606967e-01
4.612151318303400749e-01
4.612151318303400749e-01
4.379059992357661191e-01
4.379059992357661191e-01
4.379059992357661191e-01
4.359954145968666372e-01
4.359954145968666372e-01
4.436377531524646756e-01
4.436377531524646756e-01
4.375238823079862227e-01
4.375238823079862227e-01
4.375238823079862227e-01
4.233855559801299462e-01
4.233855559801299462e-01
4.096293465800535105e-01
4.096293465800535105e-01
4.096293465800535105e-01
4.012227741688956795e-01
4.012227741688956795e-01
4.298815437523882399e-01
4.298815437523882399e-01
4.298815437523882399e-01
3.939625525410775930e-01
3.939625525410775930e-01
3.924340848299579521e-01
3.924340848299579521e-01
3.924340848299579521e-01
3.924340848299579521e-01
3.924340848299579521e-01
3.767672907909820346e-01
3.767672907909820346e-01
3.767672907909820346e-01
3.863202139854795547e-01
3.863202139854795547e-01
3.653037829575850326e-01
3.653037829575850326e-01
3.653037829575850326e-01
3.595720290408865316e-01
3.595720290408865316e-01
3.729461215131830154e-01
3.729461215131830154e-01
3.729461215131830154e-01
3.500191058463890115e-01
3.500191058463890115e-01
3.488727550630492669e-01
3.488727550630492669e-01
3.488727550630492669e-01
3.588077951853266834e-01
3.588077951853266834e-01
3.549866259075277197e-01
3.549866259075277197e-01
3.549866259075277197e-01
3.370271303018723685e-01
3.370271303018723685e-01
3.603362628964463243e-01
3.603362628964463243e-01
3.603362628964463243e-01
3.630110813909055989e-01
3.630110813909055989e-01
3.366450133740924722e-01
3.366450133740924722e-01
3.366450133740924722e-01
3.458158196408100959e-01
3.458158196408100959e-01
3.213603362628964510e-01
3.213603362628964510e-01
3.213603362628964510e-01
3.393198318685518022e-01
3.393198318685518022e-01
3.209782193351165547e-01
3.209782193351165547e-01
3.209782193351165547e-01
3.343523118074130940e-01
3.343523118074130940e-01
3.320596102407336603e-01
3.320596102407336603e-01
3.320596102407336603e-01
3.102789453572793454e-01
3.102789453572793454e-01
3.332059610240733494e-01
3.332059610240733494e-01
3.332059610240733494e-01
3.179212839128773282e-01
3.179212839128773282e-01
3.137179977072984127e-01
3.137179977072984127e-01
3.137179977072984127e-01
2.980512036683224952e-01
2.980512036683224952e-01
3.030187237294612035e-01
3.030187237294612035e-01
3.030187237294612035e-01
3.087504776461597045e-01
3.087504776461597045e-01
3.244172716851356775e-01
3.244172716851356775e-01
3.244172716851356775e-01
3.110431792128391382e-01
3.110431792128391382e-01
3.060756591517004299e-01
3.060756591517004299e-01
3.060756591517004299e-01
2.854413450515858042e-01
2.854413450515858042e-01
3.125716469239587236e-01
3.125716469239587236e-01
3.125716469239587236e-01
3.056935422239205336e-01
3.056935422239205336e-01
2.969048528849828061e-01
2.969048528849828061e-01
2.969048528849828061e-01
2.884982804738249751e-01
2.884982804738249751e-01
2.709209017959495758e-01
2.709209017959495758e-01
2.709209017959495758e-01
2.938479174627435797e-01
2.938479174627435797e-01
2.911730989682843052e-01
2.911730989682843052e-01
2.911730989682843052e-01
2.877340466182651824e-01
2.877340466182651824e-01
2.690103171570500384e-01
2.690103171570500384e-01
2.690103171570500384e-01
2.686282002292701421e-01
2.686282002292701421e-01
2.564004585403133474e-01
2.564004585403133474e-01
2.564004585403133474e-01
2.678639663737103493e-01
2.678639663737103493e-01
2.644249140236912266e-01
2.644249140236912266e-01
2.644249140236912266e-01
2.766526557126480768e-01
2.766526557126480768e-01
2.533435231180741209e-01
2.533435231180741209e-01
2.533435231180741209e-01
2.755063049293083877e-01
2.755063049293083877e-01
2.613679786014520556e-01
2.613679786014520556e-01
2.613679786014520556e-01
2.713030187237294721e-01
2.713030187237294721e-01
2.357661444401986939e-01
2.357661444401986939e-01
2.357661444401986939e-01
2.353840275124187975e-01
2.353840275124187975e-01
2.499044707680550259e-01
2.499044707680550259e-01
2.499044707680550259e-01
2.262132212457011737e-01
2.262132212457011737e-01
2.227741688956820787e-01
2.227741688956820787e-01
2.227741688956820787e-01
2.426442491402369117e-01
2.426442491402369117e-01
2.185708826901031632e-01
2.185708826901031632e-01
2.185708826901031632e-01
2.250668704623614846e-01
2.250668704623614846e-01
2.392051967902178167e-01
2.392051967902178167e-01
2.392051967902178167e-01
2.288880397401604760e-01
2.288880397401604760e-01
2.437905999235766008e-01
2.437905999235766008e-01
2.437905999235766008e-01
2.147497134123041718e-01
2.147497134123041718e-01
2.063431410011463407e-01
2.063431410011463407e-01
2.063431410011463407e-01
2.101643102789453599e-01
2.101643102789453599e-01
2.227741688956820787e-01
2.227741688956820787e-01
2.227741688956820787e-01
2.029040886511272457e-01
2.029040886511272457e-01
2.269774551012609942e-01
2.269774551012609942e-01
2.269774551012609942e-01
2.208635842567825691e-01
2.208635842567825691e-01
1.994650363011081506e-01
1.994650363011081506e-01
1.994650363011081506e-01
1.952617500955292351e-01
1.952617500955292351e-01
1.948796331677493388e-01
1.948796331677493388e-01
1.948796331677493388e-01
1.960259839510890278e-01
1.960259839510890278e-01
2.040504394344669348e-01
2.040504394344669348e-01
2.040504394344669348e-01
2.128391287734046622e-01
2.128391287734046622e-01
1.895299961788307341e-01
1.895299961788307341e-01
1.883836453954910173e-01
1.883836453954910173e-01
1.883836453954910173e-01
2.048146732900267553e-01
2.048146732900267553e-01
1.803591899121131104e-01
1.803591899121131104e-01
1.803591899121131104e-01
2.040504394344669348e-01
2.040504394344669348e-01
1.944975162399694424e-01
1.944975162399694424e-01
1.944975162399694424e-01
1.696599159342759011e-01
1.696599159342759011e-01
1.830340084065724127e-01
1.830340084065724127e-01
1.830340084065724127e-01
1.669850974398165711e-01
1.669850974398165711e-01
1.937332823844096219e-01
1.937332823844096219e-01
1.937332823844096219e-01
1.669850974398165711e-01
1.669850974398165711e-01
1.601069927397783810e-01
1.601069927397783810e-01
1.601069927397783810e-01
1.604891096675582773e-01
1.604891096675582773e-01
1.868551776843714041e-01
1.868551776843714041e-01
1.868551776843714041e-01
1.517004203286205499e-01
1.517004203286205499e-01
1.826518914787925163e-01
1.826518914787925163e-01
1.826518914787925163e-01
1.646923958731371929e-01
1.646923958731371929e-01
1.780664883454337044e-01
1.780664883454337044e-01
1.780664883454337044e-01
1.807413068398930067e-01
1.807413068398930067e-01
1.658387466564768820e-01
1.658387466564768820e-01
1.658387466564768820e-01
1.627818112342376833e-01
1.627818112342376833e-01
1.436759648452426430e-01
1.436759648452426430e-01
1.436759648452426430e-01
1.597248758119984846e-01
1.597248758119984846e-01
1.497898356897210681e-01
1.497898356897210681e-01
1.497898356897210681e-01
1.623996943064577869e-01
1.623996943064577869e-01
1.398547955674436516e-01
1.398547955674436516e-01
1.398547955674436516e-01
1.413832632785632371e-01
1.413832632785632371e-01
1.318303400840657169e-01
1.318303400840657169e-01
1.318303400840657169e-01
1.635460450897974760e-01
1.635460450897974760e-01
1.322124570118456133e-01
1.322124570118456133e-01
1.322124570118456133e-01
1.566679403897592582e-01
1.566679403897592582e-01
1.390905617118838311e-01
1.390905617118838311e-01
1.390905617118838311e-01
1.604891096675582773e-01
1.604891096675582773e-01
1.310661062285059242e-01
1.310661062285059242e-01
1.310661062285059242e-01
1.528467711119602668e-01
1.528467711119602668e-01
1.482613679786014549e-01
1.482613679786014549e-01
1.482613679786014549e-01
1.314482231562858205e-01
1.314482231562858205e-01
1.303018723729461315e-01
1.303018723729461315e-01
1.303018723729461315e-01
1.360336262896446324e-01
1.360336262896446324e-01
1.394726786396637275e-01
1.394726786396637275e-01
1.394726786396637275e-01
1.299197554451662073e-01
1.299197554451662073e-01
1.459686664119220489e-01
1.459686664119220489e-01
1.459686664119220489e-01
1.199847153228888047e-01
1.199847153228888047e-01
1.276270538784868291e-01
1.276270538784868291e-01
1.276270538784868291e-01
1.268628200229270087e-01
1.268628200229270087e-01
1.436759648452426430e-01
1.436759648452426430e-01
1.436759648452426430e-01
1.100496752006113882e-01
1.100496752006113882e-01
1.119602598395108839e-01
1.119602598395108839e-01
1.119602598395108839e-01
1.073748567061520859e-01
1.073748567061520859e-01
1.039358043561329770e-01
1.039358043561329770e-01
1.039358043561329770e-01
1.123423767672907941e-01
1.123423767672907941e-01
1.039358043561329770e-01
1.039358043561329770e-01
1.039358043561329770e-01
1.024073366450133776e-01
1.024073366450133776e-01
1.035536874283530806e-01
1.035536874283530806e-01
1.035536874283530806e-01
1.050821551394726799e-01
1.050821551394726799e-01
1.031715705005731704e-01
1.031715705005731704e-01
1.031715705005731704e-01
1.341230416507451229e-01
1.341230416507451229e-01
1.016431027894535710e-01
1.016431027894535710e-01
1.016431027894535710e-01
1.165456629728696958e-01
1.165456629728696958e-01
1.245701184562476166e-01
1.245701184562476166e-01
1.245701184562476166e-01
1.238058846006878100e-01
1.238058846006878100e-01
1.081390905617118786e-01
1.081390905617118786e-01
1.081390905617118786e-01
9.743981658387466938e-02
9.743981658387466938e-02
1.218952999617883004e-01
1.218952999617883004e-01
1.218952999617883004e-01
9.132594573939625815e-02
9.132594573939625815e-02
1.230416507451280034e-01
1.230416507451280034e-01
1.230416507451280034e-01
1.027894535727932740e-01
1.027894535727932740e-01
1.153993121895299928e-01
1.153993121895299928e-01
1.153993121895299928e-01
9.476499808941536707e-02
9.476499808941536707e-02
9.935040122277416508e-02
9.935040122277416508e-02
9.935040122277416508e-02
1.196025983951089083e-01
1.196025983951089083e-01
1.081390905617118786e-01
1.081390905617118786e-01
1.081390905617118786e-01
1.134887275506304971e-01
1.134887275506304971e-01
8.406572411157814395e-02
8.406572411157814395e-02
8.406572411157814395e-02
1.123423767672907941e-01
1.123423767672907941e-01
9.743981658387466938e-02
9.743981658387466938e-02
9.743981658387466938e-02
7.756973633931983636e-02
7.756973633931983636e-02
1.142529614061902898e-01
1.142529614061902898e-01
1.142529614061902898e-01
8.139090561711884164e-02
8.139090561711884164e-02
1.092854413450515816e-01
1.092854413450515816e-01
1.092854413450515816e-01
8.062667176155903503e-02
8.062667176155903503e-02
7.795185326709973272e-02
7.795185326709973272e-02
7.795185326709973272e-02
8.368360718379824759e-02
8.368360718379824759e-02
7.909820405043943570e-02
7.909820405043943570e-02
1.073748567061520859e-01
1.073748567061520859e-01
1.073748567061520859e-01
9.896828429499426871e-02
9.896828429499426871e-02
7.718761941153992612e-02
7.718761941153992612e-02
7.718761941153992612e-02
9.782193351165456574e-02
9.782193351165456574e-02
7.565915170042032678e-02
7.565915170042032678e-02
7.565915170042032678e-02
7.260221627818112811e-02
7.260221627818112811e-02
9.858616736721437235e-02
9.858616736721437235e-02
9.858616736721437235e-02
7.069163163928161853e-02
7.069163163928161853e-02
7.374856706152083108e-02
7.374856706152083108e-02
7.374856706152083108e-02
8.024455483377913867e-02
8.024455483377913867e-02
9.743981658387466938e-02
9.743981658387466938e-02
9.743981658387466938e-02
8.139090561711884164e-02
8.139090561711884164e-02
9.514711501719526343e-02
9.514711501719526343e-02
9.514711501719526343e-02
9.973251815055407532e-02
9.973251815055407532e-02
9.247229652273596112e-02
9.247229652273596112e-02
9.247229652273596112e-02
7.489491784486053405e-02
7.489491784486053405e-02
8.597630875047763965e-02
8.597630875047763965e-02
8.597630875047763965e-02
7.795185326709973272e-02
7.795185326709973272e-02
7.222009935040121786e-02
7.222009935040121786e-02
7.222009935040121786e-02
9.552923194497515980e-02
9.552923194497515980e-02
6.648834543370271688e-02
6.648834543370271688e-02
6.648834543370271688e-02
8.979747802827665881e-02
8.979747802827665881e-02
7.413068398930072744e-02
7.413068398930072744e-02
7.413068398930072744e-02
6.113870844478410532e-02
6.113870844478410532e-02
6.228505922812380829e-02
6.228505922812380829e-02
6.228505922812380829e-02
8.253725640045854461e-02
8.253725640045854461e-02
6.763469621704241985e-02
6.763469621704241985e-02
6.763469621704241985e-02
6.648834543370271688e-02
6.648834543370271688e-02
9.017959495605655518e-02
9.017959495605655518e-02
9.017959495605655518e-02
6.801681314482231622e-02
6.801681314482231622e-02
6.648834543370271688e-02
6.648834543370271688e-02
6.648834543370271688e-02
5.884600687810469938e-02
5.884600687810469938e-02
8.368360718379824759e-02
8.368360718379824759e-02
8.368360718379824759e-02
7.948032097821933206e-02
7.948032097821933206e-02
5.655330531142529343e-02
5.655330531142529343e-02
5.655330531142529343e-02
7.451280091708062381e-02
7.451280091708062381e-02
8.406572411157814395e-02
8.406572411157814395e-02
8.406572411157814395e-02
5.311425296140619146e-02
5.311425296140619146e-02
7.795185326709973272e-02
7.795185326709973272e-02
7.795185326709973272e-02
5.235001910584639179e-02
5.235001910584639179e-02
5.693542223920519674e-02
5.693542223920519674e-02
5.693542223920519674e-02
6.687046236148261324e-02
6.687046236148261324e-02
7.260221627818112811e-02
7.260221627818112811e-02
7.260221627818112811e-02
6.457776079480320730e-02
6.457776079480320730e-02
5.196790217806648848e-02
5.196790217806648848e-02
5.196790217806648848e-02
8.291937332823844098e-02
8.291937332823844098e-02
6.228505922812380829e-02
6.228505922812380829e-02
6.228505922812380829e-02
7.413068398930072744e-02
7.413068398930072744e-02
6.763469621704241985e-02
6.763469621704241985e-02
6.763469621704241985e-02
6.648834543370271688e-02
6.648834543370271688e-02
5.617118838364539707e-02
5.617118838364539707e-02
5.617118838364539707e-02
7.871608712265953933e-02
7.871608712265953933e-02
5.043943446694688915e-02
5.043943446694688915e-02
5.043943446694688915e-02
5.273213603362628815e-02
5.273213603362628815e-02
5.464272067252579079e-02
5.464272067252579079e-02
5.464272067252579079e-02
5.655330531142529343e-02
5.655330531142529343e-02
4.700038211692778023e-02
4.700038211692778023e-02
4.700038211692778023e-02
4.738249904470768353e-02
4.738249904470768353e-02
7.756973633931983636e-02
7.756973633931983636e-02
7.756973633931983636e-02
4.585403133358807726e-02
4.585403133358807726e-02
7.145586549484142513e-02
7.145586549484142513e-02
7.145586549484142513e-02
7.871608712265953933e-02
7.871608712265953933e-02
7.604126862820022315e-02
7.604126862820022315e-02
7.604126862820022315e-02
6.763469621704241985e-02
6.763469621704241985e-02
7.107374856706151489e-02
7.107374856706151489e-02
7.107374856706151489e-02
3.897592663354986636e-02
3.897592663354986636e-02
6.610622850592280664e-02
6.610622850592280664e-02
6.610622850592280664e-02
3.974016048910966603e-02
3.974016048910966603e-02
6.152082537256400169e-02
6.152082537256400169e-02
6.152082537256400169e-02
5.196790217806648848e-02
5.196790217806648848e-02
6.954528085594191555e-02
6.954528085594191555e-02
6.954528085594191555e-02
6.419564386702331094e-02
6.419564386702331094e-02
6.648834543370271688e-02
6.648834543370271688e-02
6.648834543370271688e-02
5.731753916698510004e-02
5.731753916698510004e-02
6.381352693924341457e-02
6.381352693924341457e-02
6.381352693924341457e-02
3.324417271685135844e-02
3.324417271685135844e-02
4.394344669468857462e-02
4.394344669468857462e-02
4.394344669468857462e-02
5.846388995032479607e-02
5.846388995032479607e-02
2.904088651127244985e-02
2.904088651127244985e-02
2.904088651127244985e-02
5.731753916698510004e-02
5.731753916698510004e-02
2.865876958349255002e-02
2.865876958349255002e-02
3.897592663354986636e-02
3.897592663354986636e-02
3.897592663354986636e-02
6.190294230034390499e-02
6.190294230034390499e-02
5.426060374474589443e-02
5.426060374474589443e-02
5.426060374474589443e-02
2.330913259457393846e-02
2.330913259457393846e-02
5.426060374474589443e-02
5.426060374474589443e-02
5.426060374474589443e-02
2.445548337791364144e-02
2.445548337791364144e-02
2.865876958349255002e-02
2.865876958349255002e-02
2.865876958349255002e-02
4.585403133358807726e-02
4.585403133358807726e-02
3.324417271685135844e-02
3.324417271685135844e-02
3.324417271685135844e-02
4.279709591134887164e-02
4.279709591134887164e-02
1.375620940007642352e-02
1.375620940007642352e-02
1.375620940007642352e-02
3.553687428353075745e-02
3.553687428353075745e-02
1.260985861673672229e-02
1.260985861673672229e-02
1.260985861673672229e-02
2.445548337791364144e-02
2.445548337791364144e-02
3.247993886129155183e-02
3.247993886129155183e-02
3.247993886129155183e-02
1.604891096675582773e-02
1.604891096675582773e-02
1.108139090561711948e-02
1.108139090561711948e-02
1.108139090561711948e-02
5.349636988918608956e-03
5.349636988918608956e-03
3.439052350019105881e-03
3.439052350019105881e-03
3.439052350019105881e-03
8.406572411157813701e-03
8.406572411157813701e-03
1.566679403897592790e-02
1.566679403897592790e-02
1.566679403897592790e-02
3.247993886129155183e-02
3.247993886129155183e-02
1.146350783339701931e-02
1.146350783339701931e-02
1.146350783339701931e-02
1.872372946121513351e-02
1.872372946121513351e-02
1.069927397783721791e-02
1.069927397783721791e-02
1.069927397783721791e-02
2.560183416125334441e-02
2.560183416125334441e-02
0.000000000000000000e+00
0.000000000000000000e+00
0.000000000000000000e+00
1.146350783339701888e-03
1.146350783339701888e-03
1.375620940007642352e-02
1.375620940007642352e-02
1.375620940007642352e-02
2.483760030569354127e-02
2.483760030569354127e-02
2.674818494459304391e-02
2.674818494459304391e-02
2.674818494459304391e-02
4.012227741688956933e-02
4.012227741688956933e-02
2.445548337791364144e-02
2.445548337791364144e-02
2.445548337791364144e-02
2.330913259457393846e-02
2.330913259457393846e-02
5.273213603362628815e-02
5.273213603362628815e-02
5.273213603362628815e-02
5.502483760030569410e-02
5.502483760030569410e-02
7.183798242262132150e-02
7.183798242262132150e-02
7.183798242262132150e-02
8.597630875047763965e-02
8.597630875047763965e-02
8.941536110049674857e-02
8.941536110049674857e-02
8.941536110049674857e-02
1.035536874283530806e-01
1.035536874283530806e-01
8.826901031715704560e-02
8.826901031715704560e-02
8.826901031715704560e-02
1.039358043561329770e-01
1.039358043561329770e-01
1.348872755063049156e-01
1.348872755063049156e-01
1.348872755063049156e-01
1.486434849063813513e-01
1.486434849063813513e-01
1.677493312953763915e-01
1.677493312953763915e-01
1.677493312953763915e-01
1.811234237676729031e-01
1.811234237676729031e-01
1.857088269010317150e-01
1.857088269010317150e-01
1.857088269010317150e-01
2.036683225066870384e-01
2.036683225066870384e-01
2.048146732900267553e-01
2.048146732900267553e-01
2.048146732900267553e-01
2.392051967902178167e-01
2.392051967902178167e-01
2.338555598012991843e-01
2.338555598012991843e-01
2.338555598012991843e-01
2.361482613679785902e-01
2.361482613679785902e-01
2.713030187237294721e-01
2.713030187237294721e-01
2.713030187237294721e-01
2.892625143293847678e-01
2.892625143293847678e-01
2.655712648070309712e-01
2.655712648070309712e-01
2.655712648070309712e-01
2.865876958349254933e-01
2.865876958349254933e-01
3.221245701184562438e-01
3.221245701184562438e-01
3.221245701184562438e-01
2.991975544516621843e-01
2.991975544516621843e-01
3.175391669850974319e-01
3.175391669850974319e-01
3.175391669850974319e-01
3.225066870462361401e-01
3.225066870462361401e-01
3.347344287351929903e-01
3.347344287351929903e-01
3.347344287351929903e-01
3.611004967520061171e-01
3.611004967520061171e-01
3.561329766908674088e-01
3.561329766908674088e-01
3.561329766908674088e-01
3.809705769965609501e-01
3.809705769965609501e-01
3.985479556744364049e-01
3.985479556744364049e-01
3.985479556744364049e-01
3.760030569354222418e-01
3.760030569354222418e-01
4.077187619411539732e-01
4.077187619411539732e-01
4.077187619411539732e-01
4.027512418800152649e-01
4.027512418800152649e-01
3.924340848299579521e-01
3.924340848299579521e-01
3.924340848299579521e-01
4.111578142911730960e-01
4.111578142911730960e-01
4.077187619411539732e-01
4.077187619411539732e-01
4.077187619411539732e-01
4.321742453190676181e-01
4.321742453190676181e-01
4.176538020634313897e-01
4.176538020634313897e-01
4.176538020634313897e-01
4.306457776079480326e-01
4.306457776079480326e-01
4.367596484524264300e-01
4.367596484524264300e-01
4.367596484524264300e-01
4.466946885747038465e-01
4.466946885747038465e-01
4.489873901413832802e-01
4.489873901413832802e-01
4.489873901413832802e-01
4.680932365303783205e-01
4.680932365303783205e-01
4.837600305693542380e-01
4.837600305693542380e-01
4.837600305693542380e-01
4.715322888803973878e-01
4.715322888803973878e-01
4.956056553305311363e-01
4.956056553305311363e-01
4.814673290026748043e-01
4.814673290026748043e-01
4.814673290026748043e-01
4.849063813526939271e-01
4.849063813526939271e-01
5.085976308750477237e-01
5.085976308750477237e-01
5.085976308750477237e-01
5.070691631639281383e-01
5.070691631639281383e-01
5.116545662972870057e-01
5.116545662972870057e-01
5.116545662972870057e-01
4.975162399694306181e-01
4.975162399694306181e-01
5.063049293083683455e-01
5.063049293083683455e-01
5.063049293083683455e-01
4.998089415361100518e-01
4.998089415361100518e-01
5.303782957585021496e-01
5.303782957585021496e-01
5.303782957585021496e-01
5.376385173863201805e-01
5.376385173863201805e-01
5.410775697363393588e-01
5.410775697363393588e-01
5.410775697363393588e-01
5.277034772640427640e-01
5.277034772640427640e-01
5.471914405808177007e-01
5.471914405808177007e-01
5.471914405808177007e-01
5.273213603362628676e-01
5.273213603362628676e-01
5.487199082919372861e-01
5.487199082919372861e-01
5.487199082919372861e-01
5.414596866641192552e-01
5.414596866641192552e-01
5.491020252197171825e-01
5.491020252197171825e-01
5.491020252197171825e-01
5.586549484142147026e-01
5.586549484142147026e-01
5.586549484142147026e-01
5.586549484142147026e-01
5.586549484142147026e-01
5.341994650363011132e-01
5.341994650363011132e-01
5.674436377531524300e-01
5.674436377531524300e-01
5.674436377531524300e-01
5.471914405808177007e-01
5.471914405808177007e-01
5.487199082919372861e-01
5.487199082919372861e-01
5.487199082919372861e-01
5.540695452808559462e-01
5.540695452808559462e-01
5.582728314864348063e-01
5.582728314864348063e-01
5.582728314864348063e-01
5.456629728696981152e-01
5.456629728696981152e-01
5.536874283530760499e-01
5.536874283530760499e-01
5.536874283530760499e-01
5.781429117309896393e-01
5.781429117309896393e-01
5.567443637753152208e-01
5.567443637753152208e-01
5.567443637753152208e-01
5.525410775697363608e-01
5.525410775697363608e-01
5.536874283530760499e-01
5.536874283530760499e-01
5.536874283530760499e-01
5.613297669086740882e-01
5.613297669086740882e-01
5.590370653419945990e-01
5.590370653419945990e-01
5.590370653419945990e-01
5.575085976308750135e-01
5.575085976308750135e-01
5.903706534199465450e-01
5.903706534199465450e-01
5.903706534199465450e-01
5.609476499808941918e-01
5.609476499808941918e-01
5.884600687810469521e-01
5.884600687810469521e-01
5.884600687810469521e-01
5.842567825754680921e-01
5.842567825754680921e-01
5.720290408865112974e-01
5.720290408865112974e-01
5.720290408865112974e-01
5.838746656476881958e-01
5.838746656476881958e-01
5.888421857088268485e-01
5.888421857088268485e-01
5.888421857088268485e-01
5.674436377531524300e-01
5.674436377531524300e-01
5.628582346197936737e-01
5.628582346197936737e-01
5.628582346197936737e-01
5.842567825754680921e-01
5.842567825754680921e-01
5.571264807030951172e-01
5.571264807030951172e-01
5.571264807030951172e-01
5.655330531142529482e-01
5.655330531142529482e-01
5.708826901031716083e-01
5.708826901031716083e-01
5.708826901031716083e-01
5.888421857088268485e-01
5.888421857088268485e-01
5.682078716087122228e-01
5.682078716087122228e-01
5.682078716087122228e-01
5.876958349254871594e-01
5.876958349254871594e-01
5.842567825754680921e-01
5.842567825754680921e-01
5.842567825754680921e-01
5.773786778754298465e-01
5.773786778754298465e-01
5.624761176920137773e-01
5.624761176920137773e-01
5.624761176920137773e-01
5.567443637753152208e-01
5.567443637753152208e-01
5.575085976308750135e-01
5.575085976308750135e-01
5.575085976308750135e-01
5.613297669086740882e-01
5.613297669086740882e-01
5.605655330531142955e-01
5.605655330531142955e-01
5.605655330531142955e-01
5.651509361864730518e-01
5.651509361864730518e-01
5.445166220863584261e-01
5.445166220863584261e-01
5.445166220863584261e-01
5.701184562476118156e-01
5.701184562476118156e-01
5.521589606419564644e-01
5.521589606419564644e-01
5.521589606419564644e-01
5.682078716087122228e-01
5.682078716087122228e-01
5.685899885364921191e-01
5.685899885364921191e-01
5.685899885364921191e-01
5.479556744363774934e-01
5.479556744363774934e-01
5.395491020252196623e-01
5.395491020252196623e-01
5.395491020252196623e-01
5.445166220863584261e-01
5.445166220863584261e-01
5.238823079862438004e-01
5.238823079862438004e-01
5.238823079862438004e-01
5.437523882307986334e-01
5.437523882307986334e-01
5.284677111196025567e-01
5.284677111196025567e-01
5.284677111196025567e-01
5.070691631639281383e-01
5.070691631639281383e-01
5.361100496752005951e-01
5.361100496752005951e-01
5.361100496752005951e-01
5.124188001528467984e-01
5.124188001528467984e-01
4.994268246083301555e-01
4.994268246083301555e-01
4.994268246083301555e-01
5.063049293083683455e-01
5.063049293083683455e-01
5.154757355750859693e-01
5.154757355750859693e-01
5.154757355750859693e-01
4.845242644249140307e-01
4.845242644249140307e-01
4.944593045471914472e-01
4.944593045471914472e-01
4.944593045471914472e-01
4.803209782193351152e-01
4.803209782193351152e-01
4.638899503247994049e-01
4.638899503247994049e-01
4.638899503247994049e-01
4.558654948414214703e-01
4.558654948414214703e-01
4.711501719526174914e-01
4.711501719526174914e-01
4.711501719526174914e-01
4.386702330913259673e-01
4.386702330913259673e-01
4.493695070691631765e-01
4.493695070691631765e-01
4.363775315246465336e-01
4.363775315246465336e-01
4.363775315246465336e-01
4.310278945357279290e-01
4.310278945357279290e-01
4.226213221245700979e-01
4.226213221245700979e-01
4.226213221245700979e-01
4.252961406190294280e-01
4.252961406190294280e-01
4.134505158578525297e-01
4.134505158578525297e-01
4.134505158578525297e-01
4.233855559801299462e-01
4.233855559801299462e-01
3.974016048910966603e-01
3.974016048910966603e-01
3.974016048910966603e-01
4.138326327856324260e-01
4.138326327856324260e-01
3.909056171188383666e-01
3.909056171188383666e-01
3.909056171188383666e-01
3.717997707298433263e-01
3.717997707298433263e-01
3.805884600687810537e-01
3.805884600687810537e-01
3.805884600687810537e-01
3.756209400076423455e-01
3.756209400076423455e-01
3.599541459686664280e-01
3.599541459686664280e-01
3.599541459686664280e-01
3.691249522353840518e-01
3.691249522353840518e-01
3.599541459686664280e-01
3.599541459686664280e-01
3.599541459686664280e-01
3.771494077187619309e-01
3.771494077187619309e-01
3.603362628964463243e-01
3.603362628964463243e-01
3.603362628964463243e-01
3.458158196408100959e-01
3.458158196408100959e-01
3.538402751241879751e-01
3.538402751241879751e-01
3.538402751241879751e-01
3.614826136797860134e-01
3.614826136797860134e-01
3.366450133740924722e-01
3.366450133740924722e-01
3.366450133740924722e-01
3.244172716851356775e-01
3.244172716851356775e-01
3.293847917462743857e-01
3.293847917462743857e-01
3.293847917462743857e-01
3.198318685517768656e-01
3.198318685517768656e-01
3.194497516239969692e-01
3.194497516239969692e-01
3.194497516239969692e-01
3.439052350019105586e-01
3.439052350019105586e-01
3.439052350019105586e-01
3.439052350019105586e-01
3.439052350019105586e-01
3.060756591517004299e-01
3.060756591517004299e-01
3.339701948796331421e-01
3.339701948796331421e-01
3.339701948796331421e-01
3.034008406572410999e-01
3.034008406572410999e-01
3.339701948796331421e-01
3.339701948796331421e-01
3.339701948796331421e-01
3.297669086740542821e-01
3.297669086740542821e-01
2.995796713794421362e-01
2.995796713794421362e-01
2.995796713794421362e-01
3.240351547573557256e-01
3.240351547573557256e-01
3.072220099350401190e-01
3.072220099350401190e-01
3.072220099350401190e-01
3.110431792128391382e-01
3.110431792128391382e-01
2.888803974016048715e-01
2.888803974016048715e-01
2.888803974016048715e-01
2.949942682460833243e-01
2.949942682460833243e-01
3.106610622850592418e-01
3.106610622850592418e-01
3.106610622850592418e-01
3.125716469239587236e-01
3.125716469239587236e-01
3.087504776461597045e-01
3.087504776461597045e-01
3.087504776461597045e-01
2.774168895682078695e-01
2.774168895682078695e-01
2.766526557126480768e-01
2.766526557126480768e-01
2.766526557126480768e-01
2.927015666794038906e-01
2.927015666794038906e-01
2.888803974016048715e-01
2.888803974016048715e-01
2.888803974016048715e-01
2.667176155903706603e-01
2.667176155903706603e-01
2.655712648070309712e-01
2.655712648070309712e-01
2.655712648070309712e-01
2.735957202904088503e-01
2.735957202904088503e-01
2.651891478792510748e-01
2.651891478792510748e-01
2.651891478792510748e-01
2.560183416125334510e-01
2.560183416125334510e-01
2.518150554069545355e-01
2.518150554069545355e-01
2.518150554069545355e-01
2.510508215513947428e-01
2.510508215513947428e-01
2.770347726404279731e-01
2.770347726404279731e-01
2.770347726404279731e-01
2.464654184180359309e-01
2.464654184180359309e-01
2.472296522735957236e-01
2.472296522735957236e-01
2.472296522735957236e-01
2.437905999235766008e-01
2.437905999235766008e-01
2.392051967902178167e-01
2.392051967902178167e-01
2.392051967902178167e-01
2.369124952235384107e-01
2.369124952235384107e-01
2.437905999235766008e-01
2.437905999235766008e-01
2.437905999235766008e-01
2.644249140236912266e-01
2.644249140236912266e-01
2.590752770347726219e-01
2.590752770347726219e-01
2.590752770347726219e-01
2.254489873901413810e-01
2.254489873901413810e-01
2.499044707680550259e-01
2.499044707680550259e-01
2.499044707680550259e-01
2.227741688956820787e-01
2.227741688956820787e-01
2.277416889568207869e-01
2.277416889568207869e-01
2.277416889568207869e-01
2.472296522735957236e-01
2.472296522735957236e-01
2.285059228123805797e-01
2.285059228123805797e-01
2.285059228123805797e-01
2.231562858234619751e-01
2.231562858234619751e-01
2.265953381734810979e-01
2.265953381734810979e-01
2.265953381734810979e-01
2.097821933511654635e-01
2.097821933511654635e-01
2.017577378677875566e-01
2.017577378677875566e-01
2.017577378677875566e-01
2.315628582346198061e-01
2.315628582346198061e-01
2.151318303400840681e-01
2.151318303400840681e-01
2.151318303400840681e-01
2.220099350401222860e-01
2.220099350401222860e-01
1.998471532288880470e-01
1.998471532288880470e-01
1.998471532288880470e-01
1.933511654566297255e-01
1.933511654566297255e-01
1.979365685899885374e-01
1.979365685899885374e-01
1.979365685899885374e-01
1.956438670233091315e-01
1.956438670233091315e-01
1.975544516622086411e-01
1.975544516622086411e-01
1.975544516622086411e-01
1.857088269010317150e-01
1.857088269010317150e-01
1.910584638899503196e-01
1.910584638899503196e-01
1.761559037065341948e-01
1.761559037065341948e-01
1.761559037065341948e-01
1.727168513565150998e-01
1.727168513565150998e-01
2.009935040122277361e-01
2.009935040122277361e-01
2.009935040122277361e-01
1.967902178066488483e-01
1.967902178066488483e-01
1.685135651509361843e-01
1.685135651509361843e-01
1.685135651509361843e-01
2.002292701566679434e-01
2.002292701566679434e-01
1.727168513565150998e-01
1.727168513565150998e-01
1.727168513565150998e-01
1.658387466564768820e-01
1.658387466564768820e-01
1.853267099732518186e-01
1.853267099732518186e-01
1.853267099732518186e-01
1.597248758119984846e-01
1.597248758119984846e-01
1.620175773786778628e-01
1.620175773786778628e-01
1.620175773786778628e-01
1.700420328620557975e-01
1.700420328620557975e-01
1.792128391287733935e-01
1.792128391287733935e-01
1.792128391287733935e-01
1.837982422621322054e-01
1.837982422621322054e-01
1.608712265953381737e-01
1.608712265953381737e-01
1.608712265953381737e-01
1.467329002674818417e-01
1.467329002674818417e-01
1.612533435231180701e-01
1.612533435231180701e-01
1.612533435231180701e-01
1.738632021398547889e-01
1.738632021398547889e-01
1.402369124952235480e-01
1.402369124952235480e-01
1.402369124952235480e-01
