2.376767290790982035e-01
2.376767290790982035e-01
2.116927779900649731e-01
2.116927779900649731e-01
2.136033626289644549e-01
2.136033626289644549e-01
2.136033626289644549e-01
2.346197936568590048e-01
2.346197936568590048e-01
2.235384027512418714e-01
2.235384027512418714e-01
2.235384027512418714e-01
2.094000764233855671e-01
2.094000764233855671e-01
2.048146732900267553e-01
2.048146732900267553e-01
2.048146732900267553e-01
2.269774551012609942e-01
2.269774551012609942e-01
2.311807413068398820e-01
2.311807413068398820e-01
2.311807413068398820e-01
2.051967902178066516e-01
2.051967902178066516e-01
2.254489873901413810e-01
2.254489873901413810e-01
2.254489873901413810e-01
2.082537256400458503e-01
2.082537256400458503e-01
2.243026366068016919e-01
2.243026366068016919e-01
2.243026366068016919e-01
2.086358425678257467e-01
2.086358425678257467e-01
2.281238058846006833e-01
2.281238058846006833e-01
2.281238058846006833e-01
2.128391287734046622e-01
2.128391287734046622e-01
2.040504394344669348e-01
2.040504394344669348e-01
2.040504394344669348e-01
2.109285441345051526e-01
2.109285441345051526e-01
2.017577378677875566e-01
2.017577378677875566e-01
2.017577378677875566e-01
2.017577378677875566e-01
2.017577378677875566e-01
2.258311043179212774e-01
2.258311043179212774e-01
2.258311043179212774e-01
2.220099350401222860e-01
2.220099350401222860e-01
2.162781811234237572e-01
2.162781811234237572e-01
2.162781811234237572e-01
2.246847535345815883e-01
2.246847535345815883e-01
2.231562858234619751e-01
2.231562858234619751e-01
2.231562858234619751e-01
2.090179594956056430e-01
2.090179594956056430e-01
2.101643102789453599e-01
2.101643102789453599e-01
2.101643102789453599e-01
2.265953381734810979e-01
2.265953381734810979e-01
2.009935040122277361e-01
2.009935040122277361e-01
2.009935040122277361e-01
2.235384027512418714e-01
2.235384027512418714e-01
2.025219717233473493e-01
2.025219717233473493e-01
2.025219717233473493e-01
2.101643102789453599e-01
2.101643102789453599e-01
2.002292701566679434e-01
2.002292701566679434e-01
2.002292701566679434e-01
1.979365685899885374e-01
1.979365685899885374e-01
2.281238058846006833e-01
2.281238058846006833e-01
2.281238058846006833e-01
2.009935040122277361e-01
2.009935040122277361e-01
2.132212457011845586e-01
2.132212457011845586e-01
2.132212457011845586e-01
2.071073748567061612e-01
2.071073748567061612e-01
2.124570118456247658e-01
2.124570118456247658e-01
2.124570118456247658e-01
2.231562858234619751e-01
2.231562858234619751e-01
2.067252579289262648e-01
2.067252579289262648e-01
2.067252579289262648e-01
2.178066488345433704e-01
2.178066488345433704e-01
2.120748949178448695e-01
2.120748949178448695e-01
2.120748949178448695e-01
2.071073748567061612e-01
2.071073748567061612e-01
2.113106610622850490e-01
2.113106610622850490e-01
2.113106610622850490e-01
2.139854795567443513e-01
2.139854795567443513e-01
2.235384027512418714e-01
2.235384027512418714e-01
2.235384027512418714e-01
2.051967902178066516e-01
2.051967902178066516e-01
2.269774551012609942e-01
2.269774551012609942e-01
2.269774551012609942e-01
2.307986243790599856e-01
2.307986243790599856e-01
2.094000764233855671e-01
2.094000764233855671e-01
2.094000764233855671e-01
2.105464272067252562e-01
2.105464272067252562e-01
2.101643102789453599e-01
2.101643102789453599e-01
2.101643102789453599e-01
2.132212457011845586e-01
2.132212457011845586e-01
2.220099350401222860e-01
2.220099350401222860e-01
2.288880397401604760e-01
2.288880397401604760e-01
2.288880397401604760e-01
2.235384027512418714e-01
2.235384027512418714e-01
2.078716087122659539e-01
2.078716087122659539e-01
2.078716087122659539e-01
2.051967902178066516e-01
2.051967902178066516e-01
2.250668704623614846e-01
2.250668704623614846e-01
2.250668704623614846e-01
2.227741688956820787e-01
2.227741688956820787e-01
2.158960641956438609e-01
2.158960641956438609e-01
2.158960641956438609e-01
2.109285441345051526e-01
2.109285441345051526e-01
2.124570118456247658e-01
2.124570118456247658e-01
2.124570118456247658e-01
2.139854795567443513e-01
2.139854795567443513e-01
2.082537256400458503e-01
2.082537256400458503e-01
2.082537256400458503e-01
2.101643102789453599e-01
2.101643102789453599e-01
2.323270920901795988e-01
2.323270920901795988e-01
2.323270920901795988e-01
2.277416889568207869e-01
2.277416889568207869e-01
2.265953381734810979e-01
2.265953381734810979e-01
2.265953381734810979e-01
2.071073748567061612e-01
2.071073748567061612e-01
2.258311043179212774e-01
2.258311043179212774e-01
2.258311043179212774e-01
2.292701566679404002e-01
2.292701566679404002e-01
2.025219717233473493e-01
2.025219717233473493e-01
2.025219717233473493e-01
2.109285441345051526e-01
2.109285441345051526e-01
2.051967902178066516e-01
2.051967902178066516e-01
2.051967902178066516e-01
2.113106610622850490e-01
2.113106610622850490e-01
1.994650363011081506e-01
1.994650363011081506e-01
1.994650363011081506e-01
2.055789071455865480e-01
2.055789071455865480e-01
2.223920519679021823e-01
2.223920519679021823e-01
2.223920519679021823e-01
2.166602980512036813e-01
2.166602980512036813e-01
2.032862055789071420e-01
2.032862055789071420e-01
2.032862055789071420e-01
2.235384027512418714e-01
2.235384027512418714e-01
2.116927779900649731e-01
2.116927779900649731e-01
2.116927779900649731e-01
2.074894917844860576e-01
2.074894917844860576e-01
2.193351165456629837e-01
2.193351165456629837e-01
2.193351165456629837e-01
2.105464272067252562e-01
2.105464272067252562e-01
2.074894917844860576e-01
2.074894917844860576e-01
2.074894917844860576e-01
2.139854795567443513e-01
2.139854795567443513e-01
2.208635842567825691e-01
2.208635842567825691e-01
2.208635842567825691e-01
2.223920519679021823e-01
2.223920519679021823e-01
2.185708826901031632e-01
2.185708826901031632e-01
2.185708826901031632e-01
2.051967902178066516e-01
2.051967902178066516e-01
1.964081008788689242e-01
1.964081008788689242e-01
1.964081008788689242e-01
2.128391287734046622e-01
2.128391287734046622e-01
1.979365685899885374e-01
1.979365685899885374e-01
1.979365685899885374e-01
1.952617500955292351e-01
1.952617500955292351e-01
1.983186855177684338e-01
1.983186855177684338e-01
1.983186855177684338e-01
1.891478792510508100e-01
1.891478792510508100e-01
2.071073748567061612e-01
2.071073748567061612e-01
2.071073748567061612e-01
1.944975162399694424e-01
1.944975162399694424e-01
1.918226977455101123e-01
1.918226977455101123e-01
1.918226977455101123e-01
2.120748949178448695e-01
2.120748949178448695e-01
1.933511654566297255e-01
1.933511654566297255e-01
1.933511654566297255e-01
1.914405808177302160e-01
1.914405808177302160e-01
2.136033626289644549e-01
2.136033626289644549e-01
2.136033626289644549e-01
2.063431410011463407e-01
2.063431410011463407e-01
1.990829193733282265e-01
1.990829193733282265e-01
1.990829193733282265e-01
1.994650363011081506e-01
1.994650363011081506e-01
2.067252579289262648e-01
2.067252579289262648e-01
2.067252579289262648e-01
1.971723347344287447e-01
1.971723347344287447e-01
1.864730607565915077e-01
1.864730607565915077e-01
1.864730607565915077e-01
2.071073748567061612e-01
2.071073748567061612e-01
2.044325563622468589e-01
2.044325563622468589e-01
2.044325563622468589e-01
1.914405808177302160e-01
1.914405808177302160e-01
1.799770729843332140e-01
1.799770729843332140e-01
1.799770729843332140e-01
1.914405808177302160e-01
1.914405808177302160e-01
1.822697745510126199e-01
1.822697745510126199e-01
1.822697745510126199e-01
2.051967902178066516e-01
2.051967902178066516e-01
1.910584638899503196e-01
1.910584638899503196e-01
1.910584638899503196e-01
2.044325563622468589e-01
2.044325563622468589e-01
2.013756209400076325e-01
2.013756209400076325e-01
2.013756209400076325e-01
1.857088269010317150e-01
1.857088269010317150e-01
1.780664883454337044e-01
1.780664883454337044e-01
1.780664883454337044e-01
1.967902178066488483e-01
1.967902178066488483e-01
1.769201375620939876e-01
1.769201375620939876e-01
1.769201375620939876e-01
1.849445930454719222e-01
1.849445930454719222e-01
1.964081008788689242e-01
1.964081008788689242e-01
1.964081008788689242e-01
1.895299961788307341e-01
1.895299961788307341e-01
1.937332823844096219e-01
1.937332823844096219e-01
1.937332823844096219e-01
1.975544516622086411e-01
1.975544516622086411e-01
2.032862055789071420e-01
2.032862055789071420e-01
2.032862055789071420e-01
1.887657623232709136e-01
1.887657623232709136e-01
2.017577378677875566e-01
2.017577378677875566e-01
2.017577378677875566e-01
1.765380206343140912e-01
1.765380206343140912e-01
1.872372946121513282e-01
1.872372946121513282e-01
1.822697745510126199e-01
1.822697745510126199e-01
1.822697745510126199e-01
1.834161253343523090e-01
1.834161253343523090e-01
2.067252579289262648e-01
2.067252579289262648e-01
2.067252579289262648e-01
1.895299961788307341e-01
1.895299961788307341e-01
1.967902178066488483e-01
1.967902178066488483e-01
1.967902178066488483e-01
2.162781811234237572e-01
2.162781811234237572e-01
2.124570118456247658e-01
2.124570118456247658e-01
2.124570118456247658e-01
2.071073748567061612e-01
2.071073748567061612e-01
1.987008024455483302e-01
1.987008024455483302e-01
1.987008024455483302e-01
2.273595720290408906e-01
2.273595720290408906e-01
2.311807413068398820e-01
2.311807413068398820e-01
2.311807413068398820e-01
2.113106610622850490e-01
2.113106610622850490e-01
2.147497134123041718e-01
2.147497134123041718e-01
2.147497134123041718e-01
2.273595720290408906e-01
2.273595720290408906e-01
2.323270920901795988e-01
2.323270920901795988e-01
2.323270920901795988e-01
2.525792892625143282e-01
2.525792892625143282e-01
2.583110431792128292e-01
2.583110431792128292e-01
2.583110431792128292e-01
2.606037447458922629e-01
2.606037447458922629e-01
2.606037447458922629e-01
2.606037447458922629e-01
2.606037447458922629e-01
2.640427970959113302e-01
2.640427970959113302e-01
2.621322124570118484e-01
2.621322124570118484e-01
2.621322124570118484e-01
2.862055789071455969e-01
2.862055789071455969e-01
2.678639663737103493e-01
2.678639663737103493e-01
2.678639663737103493e-01
2.770347726404279731e-01
2.770347726404279731e-01
2.804738249904470959e-01
2.804738249904470959e-01
2.804738249904470959e-01
3.053114252961406372e-01
3.053114252961406372e-01
3.125716469239587236e-01
3.125716469239587236e-01
3.125716469239587236e-01
3.007260221627818253e-01
3.007260221627818253e-01
2.969048528849828061e-01
2.969048528849828061e-01
2.969048528849828061e-01
3.228888039740160365e-01
3.228888039740160365e-01
3.301490256018341785e-01
3.301490256018341785e-01
3.301490256018341785e-01
3.110431792128391382e-01
3.110431792128391382e-01
3.171570500573175355e-01
3.171570500573175355e-01
3.171570500573175355e-01
3.152464654184180537e-01
3.152464654184180537e-01
3.209782193351165547e-01
3.209782193351165547e-01
3.209782193351165547e-01
3.205961024073366583e-01
3.205961024073366583e-01
3.198318685517768656e-01
3.198318685517768656e-01
3.198318685517768656e-01
3.205961024073366583e-01
3.205961024073366583e-01
3.297669086740542821e-01
3.297669086740542821e-01
3.297669086740542821e-01
3.316774933129537639e-01
3.316774933129537639e-01
3.362628964463125758e-01
3.362628964463125758e-01
3.362628964463125758e-01
3.423767672907909732e-01
3.423767672907909732e-01
3.450515857852503032e-01
3.450515857852503032e-01
3.450515857852503032e-01
3.431410011463507659e-01
3.431410011463507659e-01
3.354986625907527831e-01
3.354986625907527831e-01
3.354986625907527831e-01
3.496369889186091151e-01
3.496369889186091151e-01
3.439052350019105586e-01
3.439052350019105586e-01
3.439052350019105586e-01
3.305311425296140748e-01
3.305311425296140748e-01
3.335880779518532457e-01
3.335880779518532457e-01
3.335880779518532457e-01
3.458158196408100959e-01
3.458158196408100959e-01
3.301490256018341785e-01
3.301490256018341785e-01
3.301490256018341785e-01
3.282384409629346411e-01
3.282384409629346411e-01
3.324417271685135566e-01
3.324417271685135566e-01
3.324417271685135566e-01
3.255636224684753666e-01
3.255636224684753666e-01
3.500191058463890115e-01
3.500191058463890115e-01
3.500191058463890115e-01
3.324417271685135566e-01
3.324417271685135566e-01
3.309132594573939712e-01
3.309132594573939712e-01
3.309132594573939712e-01
3.251815055406954702e-01
3.251815055406954702e-01
3.450515857852503032e-01
3.450515857852503032e-01
3.450515857852503032e-01
3.381734810852120576e-01
3.381734810852120576e-01
3.381734810852120576e-01
3.381734810852120576e-01
3.381734810852120576e-01
3.148643484906381573e-01
3.148643484906381573e-01
3.160106992739778464e-01
3.160106992739778464e-01
3.160106992739778464e-01
3.228888039740160365e-01
3.228888039740160365e-01
3.267099732518150557e-01
3.267099732518150557e-01
3.267099732518150557e-01
3.320596102407336603e-01
3.320596102407336603e-01
3.255636224684753666e-01
3.255636224684753666e-01
3.255636224684753666e-01
3.148643484906381573e-01
3.148643484906381573e-01
3.141001146350783091e-01
3.141001146350783091e-01
3.141001146350783091e-01
3.167749331295376392e-01
3.167749331295376392e-01
3.152464654184180537e-01
3.152464654184180537e-01
3.152464654184180537e-01
3.225066870462361401e-01
3.225066870462361401e-01
2.949942682460833243e-01
2.949942682460833243e-01
2.949942682460833243e-01
3.141001146350783091e-01
3.141001146350783091e-01
3.068398930072602226e-01
3.068398930072602226e-01
3.068398930072602226e-01
3.049293083683607408e-01
3.049293083683607408e-01
3.034008406572410999e-01
3.034008406572410999e-01
3.034008406572410999e-01
3.102789453572793454e-01
3.102789453572793454e-01
3.022544898739014108e-01
3.022544898739014108e-01
3.022544898739014108e-01
2.766526557126480768e-01
2.766526557126480768e-01
2.907909820405044088e-01
2.907909820405044088e-01
2.907909820405044088e-01
2.953763851738632207e-01
2.953763851738632207e-01
2.755063049293083877e-01
2.755063049293083877e-01
2.674818494459304530e-01
2.674818494459304530e-01
2.674818494459304530e-01
2.846771111960260114e-01
2.846771111960260114e-01
2.632785632403515375e-01
2.632785632403515375e-01
2.632785632403515375e-01
2.678639663737103493e-01
2.678639663737103493e-01
2.636606801681314338e-01
2.636606801681314338e-01
2.636606801681314338e-01
2.789453572793274549e-01
2.789453572793274549e-01
2.541077569736339137e-01
2.541077569736339137e-01
2.541077569736339137e-01
2.533435231180741209e-01
2.533435231180741209e-01
2.571646923958731401e-01
2.571646923958731401e-01
2.571646923958731401e-01
2.690103171570500384e-01
2.690103171570500384e-01
2.606037447458922629e-01
2.606037447458922629e-01
2.606037447458922629e-01
2.567825754680932437e-01
2.567825754680932437e-01
2.407336645013374021e-01
2.407336645013374021e-01
2.407336645013374021e-01
2.560183416125334510e-01
2.560183416125334510e-01
2.544898739014138100e-01
2.544898739014138100e-01
2.544898739014138100e-01
2.541077569736339137e-01
2.541077569736339137e-01
2.327092090179594952e-01
2.327092090179594952e-01
2.327092090179594952e-01
2.334734428735192879e-01
2.334734428735192879e-01
2.437905999235766008e-01
2.437905999235766008e-01
2.437905999235766008e-01
2.353840275124187975e-01
2.353840275124187975e-01
2.342376767290791084e-01
2.342376767290791084e-01
2.342376767290791084e-01
2.223920519679021823e-01
2.223920519679021823e-01
2.258311043179212774e-01
2.258311043179212774e-01
2.258311043179212774e-01
2.426442491402369117e-01
2.426442491402369117e-01
2.380588460068780998e-01
2.380588460068780998e-01
2.380588460068780998e-01
2.392051967902178167e-01
2.392051967902178167e-01
2.155139472678639645e-01
2.155139472678639645e-01
2.155139472678639645e-01
2.166602980512036813e-01
2.166602980512036813e-01
2.143675964845242754e-01
2.143675964845242754e-01
2.143675964845242754e-01
2.365303782957585144e-01
2.365303782957585144e-01
2.350019105846389011e-01
2.350019105846389011e-01
2.350019105846389011e-01
2.113106610622850490e-01
2.113106610622850490e-01
2.158960641956438609e-01
2.158960641956438609e-01
2.158960641956438609e-01
2.174245319067634741e-01
2.174245319067634741e-01
2.078716087122659539e-01
2.078716087122659539e-01
2.078716087122659539e-01
2.097821933511654635e-01
2.097821933511654635e-01
2.281238058846006833e-01
2.281238058846006833e-01
2.281238058846006833e-01
2.029040886511272457e-01
2.029040886511272457e-01
2.174245319067634741e-01
2.174245319067634741e-01
2.174245319067634741e-01
2.128391287734046622e-01
2.128391287734046622e-01
2.296522735957202965e-01
2.296522735957202965e-01
2.296522735957202965e-01
2.311807413068398820e-01
2.311807413068398820e-01
2.143675964845242754e-01
2.143675964845242754e-01
2.143675964845242754e-01
2.124570118456247658e-01
2.124570118456247658e-01
2.258311043179212774e-01
2.258311043179212774e-01
2.258311043179212774e-01
2.101643102789453599e-01
2.101643102789453599e-01
2.170424149789835777e-01
2.170424149789835777e-01
2.170424149789835777e-01
2.124570118456247658e-01
2.124570118456247658e-01
1.994650363011081506e-01
1.994650363011081506e-01
1.994650363011081506e-01
2.139854795567443513e-01
2.139854795567443513e-01
2.155139472678639645e-01
2.155139472678639645e-01
2.155139472678639645e-01
2.158960641956438609e-01
2.158960641956438609e-01
2.296522735957202965e-01
2.296522735957202965e-01
2.296522735957202965e-01
2.319449751623997025e-01
2.319449751623997025e-01
2.319449751623997025e-01
2.319449751623997025e-01
2.319449751623997025e-01
2.082537256400458503e-01
2.082537256400458503e-01
2.097821933511654635e-01
2.097821933511654635e-01
2.097821933511654635e-01
2.258311043179212774e-01
2.258311043179212774e-01
2.158960641956438609e-01
2.158960641956438609e-01
2.158960641956438609e-01
2.067252579289262648e-01
2.067252579289262648e-01
2.216278181123423896e-01
2.216278181123423896e-01
2.216278181123423896e-01
2.288880397401604760e-01
2.288880397401604760e-01
2.174245319067634741e-01
2.174245319067634741e-01
2.174245319067634741e-01
2.048146732900267553e-01
2.048146732900267553e-01
2.311807413068398820e-01
2.311807413068398820e-01
2.311807413068398820e-01
2.055789071455865480e-01
2.055789071455865480e-01
2.246847535345815883e-01
2.246847535345815883e-01
2.246847535345815883e-01
2.193351165456629837e-01
2.193351165456629837e-01
2.109285441345051526e-01
2.109285441345051526e-01
2.109285441345051526e-01
2.128391287734046622e-01
2.128391287734046622e-01
2.327092090179594952e-01
2.327092090179594952e-01
2.327092090179594952e-01
2.082537256400458503e-01
2.082537256400458503e-01
2.174245319067634741e-01
2.174245319067634741e-01
2.174245319067634741e-01
2.158960641956438609e-01
2.158960641956438609e-01
2.307986243790599856e-01
2.307986243790599856e-01
2.307986243790599856e-01
2.315628582346198061e-01
2.315628582346198061e-01
2.155139472678639645e-01
2.155139472678639645e-01
2.155139472678639645e-01
2.136033626289644549e-01
2.136033626289644549e-01
2.071073748567061612e-01
2.071073748567061612e-01
2.071073748567061612e-01
2.243026366068016919e-01
2.243026366068016919e-01
2.319449751623997025e-01
2.319449751623997025e-01
2.051967902178066516e-01
2.051967902178066516e-01
2.051967902178066516e-01
2.281238058846006833e-01
2.281238058846006833e-01
2.178066488345433704e-01
2.178066488345433704e-01
2.178066488345433704e-01
2.082537256400458503e-01
2.082537256400458503e-01
2.262132212457011737e-01
2.262132212457011737e-01
2.262132212457011737e-01
2.220099350401222860e-01
2.220099350401222860e-01
2.166602980512036813e-01
2.166602980512036813e-01
2.166602980512036813e-01
2.216278181123423896e-01
2.216278181123423896e-01
2.262132212457011737e-01
2.262132212457011737e-01
2.262132212457011737e-01
2.032862055789071420e-01
2.032862055789071420e-01
2.036683225066870384e-01
2.036683225066870384e-01
2.036683225066870384e-01
2.147497134123041718e-01
2.147497134123041718e-01
2.166602980512036813e-01
2.166602980512036813e-01
2.166602980512036813e-01
2.055789071455865480e-01
2.055789071455865480e-01
1.994650363011081506e-01
1.994650363011081506e-01
1.994650363011081506e-01
2.162781811234237572e-01
2.162781811234237572e-01
2.208635842567825691e-01
2.208635842567825691e-01
2.208635842567825691e-01
2.009935040122277361e-01
2.009935040122277361e-01
2.021398547955674529e-01
2.021398547955674529e-01
2.021398547955674529e-01
2.036683225066870384e-01
2.036683225066870384e-01
2.300343905235001929e-01
2.300343905235001929e-01
2.300343905235001929e-01
2.300343905235001929e-01
2.300343905235001929e-01
2.227741688956820787e-01
2.227741688956820787e-01
2.227741688956820787e-01
2.239205196790217678e-01
2.239205196790217678e-01
2.166602980512036813e-01
2.166602980512036813e-01
2.166602980512036813e-01
2.109285441345051526e-01
2.109285441345051526e-01
2.147497134123041718e-01
2.147497134123041718e-01
2.147497134123041718e-01
2.200993504012227764e-01
2.200993504012227764e-01
2.036683225066870384e-01
2.036683225066870384e-01
2.036683225066870384e-01
2.124570118456247658e-01
2.124570118456247658e-01
2.151318303400840681e-01
2.151318303400840681e-01
2.151318303400840681e-01
2.032862055789071420e-01
2.032862055789071420e-01
2.002292701566679434e-01
2.002292701566679434e-01
2.002292701566679434e-01
2.166602980512036813e-01
2.166602980512036813e-01
2.029040886511272457e-01
2.029040886511272457e-01
2.029040886511272457e-01
2.128391287734046622e-01
2.128391287734046622e-01
1.967902178066488483e-01
1.967902178066488483e-01
1.967902178066488483e-01
1.994650363011081506e-01
1.994650363011081506e-01
2.097821933511654635e-01
2.097821933511654635e-01
2.097821933511654635e-01
2.128391287734046622e-01
2.128391287734046622e-01
2.158960641956438609e-01
2.158960641956438609e-01
2.158960641956438609e-01
2.181887657623232668e-01
2.181887657623232668e-01
1.948796331677493388e-01
1.948796331677493388e-01
1.948796331677493388e-01
1.979365685899885374e-01
1.979365685899885374e-01
2.143675964845242754e-01
2.143675964845242754e-01
2.143675964845242754e-01
1.941153993121895183e-01
1.941153993121895183e-01
1.918226977455101123e-01
1.918226977455101123e-01
1.918226977455101123e-01
1.944975162399694424e-01
1.944975162399694424e-01
2.155139472678639645e-01
2.155139472678639645e-01
2.155139472678639645e-01
2.155139472678639645e-01
2.155139472678639645e-01
1.883836453954910173e-01
1.883836453954910173e-01
1.883836453954910173e-01
2.071073748567061612e-01
2.071073748567061612e-01
1.964081008788689242e-01
1.964081008788689242e-01
1.964081008788689242e-01
2.082537256400458503e-01
2.082537256400458503e-01
1.979365685899885374e-01
1.979365685899885374e-01
1.979365685899885374e-01
2.013756209400076325e-01
2.013756209400076325e-01
1.864730607565915077e-01
1.864730607565915077e-01
1.864730607565915077e-01
2.086358425678257467e-01
2.086358425678257467e-01
2.078716087122659539e-01
2.078716087122659539e-01
2.078716087122659539e-01
1.883836453954910173e-01
1.883836453954910173e-01
1.887657623232709136e-01
1.887657623232709136e-01
1.887657623232709136e-01
1.868551776843714041e-01
1.868551776843714041e-01
1.830340084065724127e-01
1.830340084065724127e-01
1.830340084065724127e-01
2.128391287734046622e-01
2.128391287734046622e-01
1.914405808177302160e-01
1.914405808177302160e-01
1.914405808177302160e-01
2.051967902178066516e-01
2.051967902178066516e-01
1.941153993121895183e-01
1.941153993121895183e-01
1.941153993121895183e-01
1.979365685899885374e-01
1.979365685899885374e-01
2.090179594956056430e-01
2.090179594956056430e-01
2.090179594956056430e-01
1.845624761176920259e-01
1.845624761176920259e-01
2.128391287734046622e-01
2.128391287734046622e-01
2.128391287734046622e-01
1.887657623232709136e-01
1.887657623232709136e-01
1.834161253343523090e-01
1.834161253343523090e-01
1.834161253343523090e-01
2.101643102789453599e-01
2.101643102789453599e-01
1.857088269010317150e-01
1.857088269010317150e-01
1.857088269010317150e-01
2.086358425678257467e-01
2.086358425678257467e-01
2.013756209400076325e-01
2.013756209400076325e-01
2.013756209400076325e-01
2.147497134123041718e-01
2.147497134123041718e-01
1.967902178066488483e-01
1.967902178066488483e-01
1.967902178066488483e-01
2.025219717233473493e-01
2.025219717233473493e-01
1.937332823844096219e-01
1.937332823844096219e-01
1.937332823844096219e-01
1.994650363011081506e-01
1.994650363011081506e-01
2.013756209400076325e-01
2.013756209400076325e-01
2.265953381734810979e-01
2.265953381734810979e-01
2.265953381734810979e-01
2.132212457011845586e-01
2.132212457011845586e-01
2.327092090179594952e-01
2.327092090179594952e-01
2.327092090179594952e-01
2.327092090179594952e-01
2.327092090179594952e-01
2.346197936568590048e-01
2.346197936568590048e-01
2.346197936568590048e-01
2.204814673290026728e-01
2.204814673290026728e-01
2.258311043179212774e-01
2.258311043179212774e-01
2.258311043179212774e-01
2.338555598012991843e-01
2.338555598012991843e-01
2.602216278181123665e-01
2.602216278181123665e-01
2.602216278181123665e-01
2.395873137179977130e-01
2.395873137179977130e-01
2.457011845624761104e-01
2.457011845624761104e-01
2.457011845624761104e-01
2.678639663737103493e-01
2.678639663737103493e-01
2.781811234237676622e-01
2.781811234237676622e-01
2.781811234237676622e-01
2.636606801681314338e-01
2.636606801681314338e-01
2.892625143293847678e-01
2.892625143293847678e-01
2.892625143293847678e-01
2.682460833014902457e-01
2.682460833014902457e-01
2.923194497516239942e-01
2.923194497516239942e-01
2.923194497516239942e-01
2.991975544516621843e-01
2.991975544516621843e-01
3.068398930072602226e-01
3.068398930072602226e-01
3.068398930072602226e-01
2.980512036683224952e-01
2.980512036683224952e-01
3.205961024073366583e-01
3.205961024073366583e-01
3.205961024073366583e-01
3.163928162017577428e-01
3.163928162017577428e-01
3.068398930072602226e-01
3.068398930072602226e-01
3.068398930072602226e-01
3.095147115017195527e-01
3.095147115017195527e-01
3.312953763851738676e-01
3.312953763851738676e-01
3.312953763851738676e-01
3.293847917462743857e-01
3.293847917462743857e-01
3.389377149407718504e-01
3.389377149407718504e-01
3.389377149407718504e-01
3.397019487963316986e-01
3.397019487963316986e-01
3.259457393962552629e-01
3.259457393962552629e-01
3.259457393962552629e-01
3.435231180741306622e-01
3.435231180741306622e-01
3.270920901795949520e-01
3.270920901795949520e-01
3.270920901795949520e-01
3.377913641574321613e-01
3.377913641574321613e-01
3.270920901795949520e-01
3.270920901795949520e-01
3.270920901795949520e-01
3.347344287351929903e-01
3.347344287351929903e-01
3.381734810852120576e-01
3.381734810852120576e-01
3.381734810852120576e-01
3.400840657241115950e-01
3.400840657241115950e-01
3.339701948796331421e-01
3.339701948796331421e-01
3.339701948796331421e-01
3.339701948796331421e-01
3.339701948796331421e-01
3.309132594573939712e-01
3.309132594573939712e-01
3.309132594573939712e-01
3.523118074130683897e-01
3.523118074130683897e-01
3.519296904852884933e-01
3.519296904852884933e-01
3.519296904852884933e-01
3.301490256018341785e-01
3.301490256018341785e-01
3.259457393962552629e-01
3.259457393962552629e-01
3.259457393962552629e-01
3.484906381352693705e-01
3.484906381352693705e-01
3.519296904852884933e-01
3.519296904852884933e-01
3.519296904852884933e-01
3.511654566297287006e-01
3.511654566297287006e-01
3.278563240351547448e-01
3.278563240351547448e-01
3.278563240351547448e-01
3.400840657241115950e-01
3.400840657241115950e-01
3.225066870462361401e-01
3.225066870462361401e-01
3.225066870462361401e-01
3.267099732518150557e-01
3.267099732518150557e-01
3.366450133740924722e-01
3.366450133740924722e-01
3.366450133740924722e-01
3.335880779518532457e-01
3.335880779518532457e-01
3.389377149407718504e-01
3.389377149407718504e-01
3.389377149407718504e-01
3.125716469239587236e-01
3.125716469239587236e-01
3.106610622850592418e-01
3.106610622850592418e-01
3.106610622850592418e-01
3.121895299961788273e-01
3.121895299961788273e-01
3.183034008406572246e-01
3.183034008406572246e-01
3.183034008406572246e-01
3.072220099350401190e-01
3.072220099350401190e-01
3.045471914405808445e-01
3.045471914405808445e-01
3.045471914405808445e-01
3.270920901795949520e-01
3.270920901795949520e-01
3.049293083683607408e-01
3.049293083683607408e-01
3.049293083683607408e-01
3.167749331295376392e-01
3.167749331295376392e-01
2.949942682460833243e-01
2.949942682460833243e-01
2.949942682460833243e-01
2.995796713794421362e-01
2.995796713794421362e-01
3.121895299961788273e-01
3.121895299961788273e-01
3.121895299961788273e-01
3.060756591517004299e-01
3.060756591517004299e-01
2.984333205961023916e-01
2.984333205961023916e-01
2.984333205961023916e-01
2.827665265571264741e-01
2.827665265571264741e-01
2.904088651127245124e-01
2.904088651127245124e-01
2.904088651127245124e-01
3.034008406572410999e-01
3.034008406572410999e-01
2.739778372181887467e-01
2.739778372181887467e-01
2.739778372181887467e-01
2.697745510126098312e-01
2.697745510126098312e-01
2.655712648070309712e-01
2.655712648070309712e-01
2.655712648070309712e-01
2.701566679403897830e-01
2.701566679403897830e-01
2.636606801681314338e-01
2.636606801681314338e-01
2.636606801681314338e-01
2.823844096293465777e-01
2.823844096293465777e-01
2.758884218570882840e-01
2.758884218570882840e-01
2.758884218570882840e-01
2.667176155903706603e-01
2.667176155903706603e-01
2.766526557126480768e-01
2.766526557126480768e-01
2.766526557126480768e-01
2.762705387848681804e-01
2.762705387848681804e-01
2.709209017959495758e-01
2.709209017959495758e-01
2.625143293847917447e-01
2.625143293847917447e-01
2.625143293847917447e-01
2.537256400458540173e-01
2.537256400458540173e-01
2.583110431792128292e-01
2.583110431792128292e-01
2.583110431792128292e-01
2.414978983568972226e-01
2.414978983568972226e-01
2.403515475735575058e-01
2.403515475735575058e-01
2.403515475735575058e-01
2.434084829957967044e-01
2.434084829957967044e-01
2.457011845624761104e-01
2.457011845624761104e-01
2.457011845624761104e-01
2.342376767290791084e-01
2.342376767290791084e-01
2.307986243790599856e-01
2.307986243790599856e-01
2.307986243790599856e-01
2.479938861291555163e-01
2.479938861291555163e-01
2.319449751623997025e-01
2.319449751623997025e-01
2.319449751623997025e-01
2.265953381734810979e-01
2.265953381734810979e-01
2.223920519679021823e-01
2.223920519679021823e-01
2.223920519679021823e-01
2.300343905235001929e-01
2.300343905235001929e-01
2.350019105846389011e-01
2.350019105846389011e-01
2.350019105846389011e-01
2.330913259457393916e-01
2.330913259457393916e-01
2.143675964845242754e-01
2.143675964845242754e-01
2.143675964845242754e-01
2.281238058846006833e-01
2.281238058846006833e-01
2.281238058846006833e-01
2.281238058846006833e-01
2.281238058846006833e-01
2.120748949178448695e-01
2.120748949178448695e-01
2.143675964845242754e-01
2.143675964845242754e-01
2.143675964845242754e-01
2.265953381734810979e-01
2.265953381734810979e-01
2.258311043179212774e-01
2.258311043179212774e-01
2.258311043179212774e-01
2.227741688956820787e-01
2.227741688956820787e-01
2.342376767290791084e-01
2.342376767290791084e-01
2.342376767290791084e-01
2.009935040122277361e-01
2.009935040122277361e-01
2.174245319067634741e-01
2.174245319067634741e-01
2.174245319067634741e-01
2.174245319067634741e-01
2.174245319067634741e-01
2.055789071455865480e-01
2.055789071455865480e-01
2.055789071455865480e-01
2.166602980512036813e-01
2.166602980512036813e-01
2.097821933511654635e-01
2.097821933511654635e-01
2.097821933511654635e-01
2.166602980512036813e-01
2.166602980512036813e-01
2.105464272067252562e-01
2.105464272067252562e-01
2.105464272067252562e-01
2.017577378677875566e-01
2.017577378677875566e-01
2.220099350401222860e-01
2.220099350401222860e-01
2.220099350401222860e-01
2.181887657623232668e-01
2.181887657623232668e-01
2.200993504012227764e-01
2.200993504012227764e-01
2.200993504012227764e-01
2.009935040122277361e-01
2.009935040122277361e-01
2.269774551012609942e-01
2.269774551012609942e-01
2.269774551012609942e-01
2.059610240733664444e-01
2.059610240733664444e-01
2.143675964845242754e-01
2.143675964845242754e-01
2.143675964845242754e-01
2.006113870844478397e-01
2.006113870844478397e-01
2.265953381734810979e-01
2.265953381734810979e-01
2.265953381734810979e-01
2.296522735957202965e-01
2.296522735957202965e-01
2.273595720290408906e-01
2.273595720290408906e-01
2.273595720290408906e-01
2.078716087122659539e-01
2.078716087122659539e-01
2.292701566679404002e-01
2.292701566679404002e-01
2.292701566679404002e-01
2.055789071455865480e-01
2.055789071455865480e-01
2.116927779900649731e-01
2.116927779900649731e-01
2.116927779900649731e-01
2.285059228123805797e-01
2.285059228123805797e-01
2.155139472678639645e-01
2.155139472678639645e-01
2.155139472678639645e-01
2.281238058846006833e-01
2.281238058846006833e-01
2.323270920901795988e-01
2.323270920901795988e-01
2.323270920901795988e-01
2.032862055789071420e-01
2.032862055789071420e-01
2.090179594956056430e-01
2.090179594956056430e-01
2.090179594956056430e-01
2.227741688956820787e-01
2.227741688956820787e-01
2.246847535345815883e-01
2.246847535345815883e-01
2.246847535345815883e-01
2.071073748567061612e-01
2.071073748567061612e-01
2.300343905235001929e-01
2.300343905235001929e-01
2.300343905235001929e-01
2.277416889568207869e-01
2.277416889568207869e-01
2.155139472678639645e-01
2.155139472678639645e-01
2.155139472678639645e-01
2.147497134123041718e-01
2.147497134123041718e-01
2.204814673290026728e-01
2.204814673290026728e-01
2.204814673290026728e-01
2.300343905235001929e-01
2.300343905235001929e-01
2.067252579289262648e-01
2.067252579289262648e-01
2.067252579289262648e-01
2.277416889568207869e-01
2.277416889568207869e-01
2.105464272067252562e-01
2.105464272067252562e-01
2.105464272067252562e-01
2.063431410011463407e-01
2.063431410011463407e-01
2.170424149789835777e-01
2.170424149789835777e-01
2.170424149789835777e-01
2.113106610622850490e-01
2.113106610622850490e-01
2.243026366068016919e-01
2.243026366068016919e-01
2.243026366068016919e-01
2.090179594956056430e-01
2.090179594956056430e-01
2.147497134123041718e-01
2.147497134123041718e-01
2.147497134123041718e-01
2.124570118456247658e-01
2.124570118456247658e-01
2.040504394344669348e-01
2.040504394344669348e-01
2.040504394344669348e-01
2.009935040122277361e-01
2.009935040122277361e-01
2.292701566679404002e-01
2.292701566679404002e-01
2.292701566679404002e-01
2.044325563622468589e-01
2.044325563622468589e-01
2.113106610622850490e-01
2.113106610622850490e-01
2.113106610622850490e-01
2.009935040122277361e-01
2.009935040122277361e-01
2.277416889568207869e-01
2.277416889568207869e-01
2.032862055789071420e-01
2.032862055789071420e-01
2.032862055789071420e-01
2.044325563622468589e-01
2.044325563622468589e-01
2.040504394344669348e-01
2.040504394344669348e-01
2.040504394344669348e-01
2.051967902178066516e-01
2.051967902178066516e-01
2.265953381734810979e-01
2.265953381734810979e-01
2.265953381734810979e-01
2.265953381734810979e-01
2.265953381734810979e-01
2.002292701566679434e-01
2.002292701566679434e-01
2.002292701566679434e-01
2.178066488345433704e-01
2.178066488345433704e-01
2.113106610622850490e-01
2.113106610622850490e-01
2.113106610622850490e-01
2.029040886511272457e-01
2.029040886511272457e-01
2.212457011845624655e-01
2.212457011845624655e-01
2.212457011845624655e-01
2.155139472678639645e-01
2.155139472678639645e-01
2.246847535345815883e-01
2.246847535345815883e-01
2.246847535345815883e-01
2.048146732900267553e-01
2.048146732900267553e-01
2.197172334734428800e-01
2.197172334734428800e-01
2.197172334734428800e-01
2.143675964845242754e-01
2.143675964845242754e-01
2.017577378677875566e-01
2.017577378677875566e-01
2.017577378677875566e-01
2.006113870844478397e-01
2.006113870844478397e-01
1.967902178066488483e-01
1.967902178066488483e-01
1.967902178066488483e-01
1.925869316010699328e-01
1.925869316010699328e-01
2.139854795567443513e-01
2.139854795567443513e-01
2.139854795567443513e-01
2.124570118456247658e-01
2.124570118456247658e-01
2.078716087122659539e-01
2.078716087122659539e-01
2.078716087122659539e-01
2.158960641956438609e-01
2.158960641956438609e-01
2.090179594956056430e-01
2.090179594956056430e-01
2.090179594956056430e-01
1.910584638899503196e-01
1.910584638899503196e-01
2.097821933511654635e-01
2.097821933511654635e-01
2.097821933511654635e-01
2.097821933511654635e-01
2.097821933511654635e-01
1.834161253343523090e-01
1.834161253343523090e-01
1.834161253343523090e-01
1.987008024455483302e-01
1.987008024455483302e-01
1.994650363011081506e-01
1.994650363011081506e-01
1.994650363011081506e-01
1.979365685899885374e-01
1.979365685899885374e-01
1.822697745510126199e-01
1.822697745510126199e-01
1.822697745510126199e-01
2.044325563622468589e-01
2.044325563622468589e-01
2.082537256400458503e-01
2.082537256400458503e-01
2.082537256400458503e-01
2.074894917844860576e-01
2.074894917844860576e-01
2.032862055789071420e-01
2.032862055789071420e-01
2.032862055789071420e-01
1.891478792510508100e-01
1.891478792510508100e-01
1.857088269010317150e-01
1.857088269010317150e-01
1.857088269010317150e-01
2.055789071455865480e-01
2.055789071455865480e-01
1.902942300343905269e-01
1.902942300343905269e-01
1.902942300343905269e-01
1.845624761176920259e-01
1.845624761176920259e-01
2.048146732900267553e-01
2.048146732900267553e-01
2.048146732900267553e-01
1.967902178066488483e-01
1.967902178066488483e-01
1.948796331677493388e-01
1.948796331677493388e-01
1.948796331677493388e-01
1.987008024455483302e-01
1.987008024455483302e-01
2.002292701566679434e-01
2.002292701566679434e-01
2.002292701566679434e-01
1.776843714176538080e-01
1.776843714176538080e-01
1.849445930454719222e-01
1.849445930454719222e-01
1.849445930454719222e-01
1.734810852120748925e-01
1.734810852120748925e-01
1.792128391287733935e-01
1.792128391287733935e-01
1.792128391287733935e-01
1.853267099732518186e-01
1.853267099732518186e-01
1.700420328620557975e-01
1.700420328620557975e-01
1.700420328620557975e-01
1.944975162399694424e-01
1.944975162399694424e-01
1.746274359954146094e-01
1.746274359954146094e-01
1.746274359954146094e-01
1.711883836453954866e-01
1.711883836453954866e-01
1.719526175009552793e-01
1.719526175009552793e-01
1.719526175009552793e-01
1.696599159342759011e-01
1.696599159342759011e-01
1.891478792510508100e-01
1.891478792510508100e-01
1.891478792510508100e-01
1.876194115399312246e-01
1.876194115399312246e-01
1.895299961788307341e-01
1.895299961788307341e-01
1.895299961788307341e-01
1.753916698509744021e-01
1.753916698509744021e-01
1.880015284677111209e-01
1.880015284677111209e-01
1.880015284677111209e-01
1.899121131066106305e-01
1.899121131066106305e-01
1.960259839510890278e-01
1.960259839510890278e-01
1.960259839510890278e-01
1.719526175009552793e-01
1.719526175009552793e-01
1.818876576232326958e-01
1.818876576232326958e-01
1.818876576232326958e-01
1.944975162399694424e-01
1.944975162399694424e-01
1.784486052732136008e-01
1.784486052732136008e-01
1.784486052732136008e-01
1.830340084065724127e-01
1.830340084065724127e-01
1.994650363011081506e-01
1.994650363011081506e-01
1.994650363011081506e-01
1.990829193733282265e-01
1.990829193733282265e-01
1.822697745510126199e-01
1.822697745510126199e-01
1.822697745510126199e-01
1.948796331677493388e-01
1.948796331677493388e-01
1.860909438288116113e-01
1.860909438288116113e-01
1.860909438288116113e-01
1.864730607565915077e-01
1.864730607565915077e-01
1.987008024455483302e-01
1.987008024455483302e-01
1.987008024455483302e-01
2.086358425678257467e-01
2.086358425678257467e-01
1.971723347344287447e-01
1.971723347344287447e-01
1.971723347344287447e-01
2.029040886511272457e-01
2.029040886511272457e-01
2.013756209400076325e-01
2.013756209400076325e-01
2.013756209400076325e-01
2.071073748567061612e-01
2.071073748567061612e-01
2.258311043179212774e-01
2.258311043179212774e-01
2.155139472678639645e-01
2.155139472678639645e-01
2.155139472678639645e-01
2.414978983568972226e-01
2.414978983568972226e-01
2.483760030569354127e-01
2.483760030569354127e-01
2.483760030569354127e-01
2.353840275124187975e-01
2.353840275124187975e-01
2.617500955292319520e-01
2.617500955292319520e-01
2.617500955292319520e-01
2.403515475735575058e-01
2.403515475735575058e-01
2.586931601069927256e-01
2.586931601069927256e-01
2.586931601069927256e-01
2.606037447458922629e-01
2.606037447458922629e-01
2.747420710737485394e-01
2.747420710737485394e-01
2.747420710737485394e-01
2.590752770347726219e-01
2.590752770347726219e-01
2.797095911348873032e-01
2.797095911348873032e-01
2.797095911348873032e-01
2.842949942682460596e-01
2.842949942682460596e-01
2.869698127627053896e-01
2.869698127627053896e-01
2.869698127627053896e-01
2.949942682460833243e-01
2.949942682460833243e-01
2.873519296904852860e-01
2.873519296904852860e-01
2.873519296904852860e-01
3.068398930072602226e-01
3.068398930072602226e-01
3.037829575850209962e-01
3.037829575850209962e-01
3.037829575850209962e-01
3.003439052350019289e-01
3.003439052350019289e-01
3.060756591517004299e-01
3.060756591517004299e-01
3.060756591517004299e-01
3.141001146350783091e-01
3.141001146350783091e-01
3.309132594573939712e-01
3.309132594573939712e-01
3.309132594573939712e-01
3.110431792128391382e-01
3.110431792128391382e-01
3.083683607183798081e-01
3.083683607183798081e-01
3.083683607183798081e-01
3.213603362628964510e-01
3.213603362628964510e-01
3.095147115017195527e-01
3.095147115017195527e-01
3.095147115017195527e-01
3.236530378295758292e-01
3.236530378295758292e-01
3.156285823461979501e-01
3.156285823461979501e-01
3.156285823461979501e-01
3.354986625907527831e-01
3.354986625907527831e-01
3.282384409629346411e-01
3.282384409629346411e-01
3.282384409629346411e-01
3.400840657241115950e-01
3.400840657241115950e-01
3.374092472296522649e-01
3.374092472296522649e-01
3.374092472296522649e-01
3.228888039740160365e-01
3.228888039740160365e-01
3.370271303018723685e-01
3.370271303018723685e-01
3.370271303018723685e-01
3.339701948796331421e-01
3.339701948796331421e-01
3.400840657241115950e-01
3.400840657241115950e-01
3.400840657241115950e-01
3.320596102407336603e-01
3.320596102407336603e-01
3.351165456629728867e-01
3.351165456629728867e-01
3.351165456629728867e-01
3.167749331295376392e-01
3.167749331295376392e-01
3.171570500573175355e-01
3.171570500573175355e-01
3.171570500573175355e-01
3.290026748184944339e-01
3.290026748184944339e-01
3.106610622850592418e-01
3.106610622850592418e-01
3.106610622850592418e-01
3.183034008406572246e-01
3.183034008406572246e-01
3.335880779518532457e-01
3.335880779518532457e-01
3.335880779518532457e-01
3.106610622850592418e-01
3.106610622850592418e-01
3.270920901795949520e-01
3.270920901795949520e-01
3.270920901795949520e-01
3.114252961406190345e-01
3.114252961406190345e-01
3.022544898739014108e-01
3.022544898739014108e-01
3.022544898739014108e-01
3.053114252961406372e-01
3.053114252961406372e-01
3.011081390905617217e-01
3.011081390905617217e-01
3.011081390905617217e-01
3.030187237294612035e-01
3.030187237294612035e-01
3.198318685517768656e-01
3.198318685517768656e-01
3.198318685517768656e-01
2.946121513183034279e-01
2.946121513183034279e-01
2.865876958349254933e-01
2.865876958349254933e-01
2.865876958349254933e-01
2.969048528849828061e-01
2.969048528849828061e-01
2.938479174627435797e-01
2.938479174627435797e-01
2.938479174627435797e-01
3.114252961406190345e-01
3.114252961406190345e-01
2.862055789071455969e-01
2.862055789071455969e-01
2.862055789071455969e-01
2.800917080626671996e-01
2.800917080626671996e-01
3.018723729461215144e-01
3.018723729461215144e-01
3.018723729461215144e-01
2.835307604126862668e-01
2.835307604126862668e-01
2.755063049293083877e-01
2.755063049293083877e-01
2.755063049293083877e-01
2.938479174627435797e-01
2.938479174627435797e-01
2.701566679403897830e-01
2.701566679403897830e-01
2.701566679403897830e-01
2.682460833014902457e-01
2.682460833014902457e-01
2.793274742071073513e-01
2.793274742071073513e-01
2.793274742071073513e-01
2.804738249904470959e-01
2.804738249904470959e-01
2.670997325181505566e-01
2.670997325181505566e-01
2.670997325181505566e-01
2.571646923958731401e-01
2.571646923958731401e-01
2.770347726404279731e-01
2.770347726404279731e-01
2.770347726404279731e-01
2.632785632403515375e-01
2.632785632403515375e-01
2.770347726404279731e-01
2.770347726404279731e-01
2.770347726404279731e-01
2.571646923958731401e-01
2.571646923958731401e-01
2.445548337791364213e-01
2.445548337791364213e-01
2.445548337791364213e-01
2.453190676346962140e-01
2.453190676346962140e-01
2.430263660680168081e-01
2.430263660680168081e-01
2.430263660680168081e-01
2.632785632403515375e-01
2.632785632403515375e-01
2.502865876958349500e-01
2.502865876958349500e-01
2.502865876958349500e-01
2.357661444401986939e-01
2.357661444401986939e-01
2.418800152846771190e-01
2.418800152846771190e-01
2.418800152846771190e-01
2.495223538402751295e-01
2.495223538402751295e-01
2.342376767290791084e-01
2.342376767290791084e-01
2.216278181123423896e-01
2.216278181123423896e-01
2.216278181123423896e-01
2.464654184180359309e-01
2.464654184180359309e-01
2.323270920901795988e-01
2.323270920901795988e-01
2.323270920901795988e-01
2.346197936568590048e-01
2.346197936568590048e-01
2.418800152846771190e-01
2.418800152846771190e-01
2.418800152846771190e-01
2.288880397401604760e-01
2.288880397401604760e-01
2.139854795567443513e-01
2.139854795567443513e-01
2.139854795567443513e-01
2.158960641956438609e-01
2.158960641956438609e-01
2.113106610622850490e-01
2.113106610622850490e-01
2.113106610622850490e-01
2.143675964845242754e-01
2.143675964845242754e-01
2.113106610622850490e-01
2.113106610622850490e-01
2.113106610622850490e-01
2.281238058846006833e-01
2.281238058846006833e-01
2.235384027512418714e-01
2.235384027512418714e-01
2.235384027512418714e-01
2.311807413068398820e-01
2.311807413068398820e-01
2.113106610622850490e-01
2.113106610622850490e-01
2.113106610622850490e-01
2.197172334734428800e-01
2.197172334734428800e-01
2.055789071455865480e-01
2.055789071455865480e-01
2.055789071455865480e-01
2.254489873901413810e-01
2.254489873901413810e-01
2.009935040122277361e-01
2.009935040122277361e-01
2.009935040122277361e-01
2.094000764233855671e-01
2.094000764233855671e-01
2.051967902178066516e-01
2.051967902178066516e-01
2.051967902178066516e-01
2.101643102789453599e-01
2.101643102789453599e-01
1.967902178066488483e-01
1.967902178066488483e-01
1.967902178066488483e-01
2.189529996178830595e-01
2.189529996178830595e-01
2.051967902178066516e-01
2.051967902178066516e-01
2.051967902178066516e-01
2.063431410011463407e-01
2.063431410011463407e-01
2.113106610622850490e-01
2.113106610622850490e-01
2.113106610622850490e-01
2.204814673290026728e-01
2.204814673290026728e-01
2.044325563622468589e-01
2.044325563622468589e-01
2.044325563622468589e-01
2.044325563622468589e-01
2.044325563622468589e-01
2.002292701566679434e-01
2.002292701566679434e-01
2.002292701566679434e-01
2.151318303400840681e-01
2.151318303400840681e-01
2.147497134123041718e-01
2.147497134123041718e-01
2.147497134123041718e-01
1.998471532288880470e-01
1.998471532288880470e-01
2.143675964845242754e-01
2.143675964845242754e-01
2.143675964845242754e-01
2.036683225066870384e-01
2.036683225066870384e-01
2.009935040122277361e-01
2.009935040122277361e-01
2.009935040122277361e-01
2.029040886511272457e-01
2.029040886511272457e-01
2.246847535345815883e-01
2.246847535345815883e-01
2.246847535345815883e-01
2.002292701566679434e-01
2.002292701566679434e-01
2.158960641956438609e-01
2.158960641956438609e-01
2.158960641956438609e-01
1.998471532288880470e-01
1.998471532288880470e-01
2.216278181123423896e-01
2.216278181123423896e-01
2.216278181123423896e-01
2.094000764233855671e-01
2.094000764233855671e-01
2.021398547955674529e-01
2.021398547955674529e-01
2.021398547955674529e-01
2.105464272067252562e-01
2.105464272067252562e-01
2.113106610622850490e-01
2.113106610622850490e-01
2.113106610622850490e-01
2.139854795567443513e-01
2.139854795567443513e-01
2.105464272067252562e-01
2.105464272067252562e-01
2.105464272067252562e-01
2.097821933511654635e-01
2.097821933511654635e-01
2.097821933511654635e-01
2.097821933511654635e-01
2.097821933511654635e-01
2.334734428735192879e-01
2.334734428735192879e-01
2.071073748567061612e-01
2.071073748567061612e-01
2.071073748567061612e-01
2.078716087122659539e-01
2.078716087122659539e-01
2.097821933511654635e-01
2.097821933511654635e-01
2.097821933511654635e-01
2.243026366068016919e-01
2.243026366068016919e-01
2.166602980512036813e-01
2.166602980512036813e-01
2.166602980512036813e-01
2.281238058846006833e-01
2.281238058846006833e-01
2.185708826901031632e-01
2.185708826901031632e-01
2.185708826901031632e-01
2.311807413068398820e-01
2.311807413068398820e-01
2.327092090179594952e-01
2.327092090179594952e-01
2.327092090179594952e-01
2.300343905235001929e-01
2.300343905235001929e-01
2.071073748567061612e-01
2.071073748567061612e-01
2.071073748567061612e-01
2.369124952235384107e-01
2.369124952235384107e-01
2.277416889568207869e-01
2.277416889568207869e-01
2.277416889568207869e-01
2.136033626289644549e-01
2.136033626289644549e-01
2.216278181123423896e-01
2.216278181123423896e-01
2.216278181123423896e-01
2.097821933511654635e-01
2.097821933511654635e-01
2.051967902178066516e-01
2.051967902178066516e-01
2.051967902178066516e-01
2.212457011845624655e-01
2.212457011845624655e-01
2.189529996178830595e-01
2.189529996178830595e-01
2.189529996178830595e-01
2.071073748567061612e-01
2.071073748567061612e-01
2.063431410011463407e-01
2.063431410011463407e-01
2.063431410011463407e-01
2.296522735957202965e-01
2.296522735957202965e-01
2.105464272067252562e-01
2.105464272067252562e-01
2.105464272067252562e-01
2.086358425678257467e-01
2.086358425678257467e-01
2.063431410011463407e-01
2.063431410011463407e-01
2.063431410011463407e-01
2.227741688956820787e-01
2.227741688956820787e-01
2.162781811234237572e-01
2.162781811234237572e-01
2.162781811234237572e-01
2.277416889568207869e-01
2.277416889568207869e-01
2.334734428735192879e-01
2.334734428735192879e-01
2.067252579289262648e-01
2.067252579289262648e-01
2.067252579289262648e-01
2.254489873901413810e-01
2.254489873901413810e-01
2.086358425678257467e-01
2.086358425678257467e-01
2.086358425678257467e-01
2.017577378677875566e-01
2.017577378677875566e-01
2.124570118456247658e-01
2.124570118456247658e-01
2.124570118456247658e-01
2.017577378677875566e-01
2.017577378677875566e-01
2.178066488345433704e-01
2.178066488345433704e-01
2.178066488345433704e-01
2.055789071455865480e-01
2.055789071455865480e-01
2.109285441345051526e-01
2.109285441345051526e-01
2.109285441345051526e-01
2.231562858234619751e-01
2.231562858234619751e-01
2.258311043179212774e-01
2.258311043179212774e-01
2.258311043179212774e-01
2.067252579289262648e-01
2.067252579289262648e-01
2.025219717233473493e-01
2.025219717233473493e-01
2.025219717233473493e-01
2.212457011845624655e-01
2.212457011845624655e-01
2.048146732900267553e-01
2.048146732900267553e-01
2.048146732900267553e-01
2.155139472678639645e-01
2.155139472678639645e-01
2.220099350401222860e-01
2.220099350401222860e-01
2.220099350401222860e-01
2.055789071455865480e-01
2.055789071455865480e-01
2.055789071455865480e-01
2.055789071455865480e-01
2.055789071455865480e-01
2.059610240733664444e-01
2.059610240733664444e-01
1.960259839510890278e-01
1.960259839510890278e-01
1.960259839510890278e-01
2.143675964845242754e-01
2.143675964845242754e-01
1.998471532288880470e-01
1.998471532288880470e-01
1.998471532288880470e-01
1.906763469621704232e-01
1.906763469621704232e-01
2.136033626289644549e-01
2.136033626289644549e-01
2.136033626289644549e-01
1.910584638899503196e-01
1.910584638899503196e-01
1.933511654566297255e-01
1.933511654566297255e-01
1.933511654566297255e-01
1.944975162399694424e-01
1.944975162399694424e-01
2.078716087122659539e-01
2.078716087122659539e-01
2.078716087122659539e-01
2.013756209400076325e-01
2.013756209400076325e-01
1.891478792510508100e-01
1.891478792510508100e-01
1.891478792510508100e-01
1.849445930454719222e-01
1.849445930454719222e-01
1.880015284677111209e-01
1.880015284677111209e-01
1.880015284677111209e-01
2.097821933511654635e-01
2.097821933511654635e-01
2.067252579289262648e-01
2.067252579289262648e-01
2.067252579289262648e-01
1.837982422621322054e-01
1.837982422621322054e-01
1.845624761176920259e-01
1.845624761176920259e-01
1.845624761176920259e-01
1.925869316010699328e-01
1.925869316010699328e-01
1.906763469621704232e-01
1.906763469621704232e-01
1.906763469621704232e-01
1.830340084065724127e-01
1.830340084065724127e-01
2.055789071455865480e-01
2.055789071455865480e-01
2.055789071455865480e-01
1.983186855177684338e-01
1.983186855177684338e-01
1.914405808177302160e-01
1.914405808177302160e-01
1.914405808177302160e-01
1.994650363011081506e-01
1.994650363011081506e-01
1.864730607565915077e-01
1.864730607565915077e-01
1.864730607565915077e-01
1.948796331677493388e-01
1.948796331677493388e-01
1.807413068398930067e-01
1.807413068398930067e-01
1.807413068398930067e-01
2.013756209400076325e-01
2.013756209400076325e-01
1.891478792510508100e-01
1.891478792510508100e-01
1.891478792510508100e-01
1.757737867787542985e-01
1.757737867787542985e-01
1.799770729843332140e-01
1.799770729843332140e-01
1.799770729843332140e-01
1.987008024455483302e-01
1.987008024455483302e-01
1.948796331677493388e-01
