1.367978601452044252e-01
1.635460450897974760e-01
1.635460450897974760e-01
1.635460450897974760e-01
1.329766908674054338e-01
1.329766908674054338e-01
1.581964081008788714e-01
1.581964081008788714e-01
1.581964081008788714e-01
1.536110049675200595e-01
1.536110049675200595e-01
1.306839893007260278e-01
1.306839893007260278e-01
1.306839893007260278e-01
1.352693924340848397e-01
1.352693924340848397e-01
1.566679403897592582e-01
1.566679403897592582e-01
1.566679403897592582e-01
1.425296140619029539e-01
1.425296140619029539e-01
1.360336262896446324e-01
1.360336262896446324e-01
1.360336262896446324e-01
1.272449369507069050e-01
1.272449369507069050e-01
1.463507833397019453e-01
1.463507833397019453e-01
1.539931218952999559e-01
1.539931218952999559e-01
1.539931218952999559e-01
1.260985861673672159e-01
1.260985861673672159e-01
1.226595338173481070e-01
1.226595338173481070e-01
1.226595338173481070e-01
1.394726786396637275e-01
1.394726786396637275e-01
1.520825372564004463e-01
1.520825372564004463e-01
1.520825372564004463e-01
1.325945739396255374e-01
1.325945739396255374e-01
1.287734046618265182e-01
1.287734046618265182e-01
1.287734046618265182e-01
1.226595338173481070e-01
1.226595338173481070e-01
1.245701184562476166e-01
1.245701184562476166e-01
1.245701184562476166e-01
1.467329002674818417e-01
1.467329002674818417e-01
1.509361864730607572e-01
1.509361864730607572e-01
1.509361864730607572e-01
1.490256018341612476e-01
1.490256018341612476e-01
1.226595338173481070e-01
1.226595338173481070e-01
1.226595338173481070e-01
1.188383645395491017e-01
1.188383645395491017e-01
1.153993121895299928e-01
1.153993121895299928e-01
1.153993121895299928e-01
1.199847153228888047e-01
1.199847153228888047e-01
1.184562476117692054e-01
1.184562476117692054e-01
1.184562476117692054e-01
1.402369124952235480e-01
1.402369124952235480e-01
1.402369124952235480e-01
1.402369124952235480e-01
1.402369124952235480e-01
1.455865494841421526e-01
1.455865494841421526e-01
1.150171952617500964e-01
1.150171952617500964e-01
1.150171952617500964e-01
1.150171952617500964e-01
1.150171952617500964e-01
1.245701184562476166e-01
1.245701184562476166e-01
1.245701184562476166e-01
1.180741306839892951e-01
1.180741306839892951e-01
1.111960259839510912e-01
1.111960259839510912e-01
1.111960259839510912e-01
1.096675582728314918e-01
1.096675582728314918e-01
1.127244936950706905e-01
1.127244936950706905e-01
1.127244936950706905e-01
1.440580817730225394e-01
1.440580817730225394e-01
1.169277799006495921e-01
1.169277799006495921e-01
1.169277799006495921e-01
1.383263278563240384e-01
1.383263278563240384e-01
1.085212074894917889e-01
1.085212074894917889e-01
1.085212074894917889e-01
1.383263278563240384e-01
1.383263278563240384e-01
1.165456629728696958e-01
1.165456629728696958e-01
1.165456629728696958e-01
1.253343523118074232e-01
1.253343523118074232e-01
1.211310661062285077e-01
1.211310661062285077e-01
1.211310661062285077e-01
1.153993121895299928e-01
1.153993121895299928e-01
1.352693924340848397e-01
1.352693924340848397e-01
1.352693924340848397e-01
1.352693924340848397e-01
1.352693924340848397e-01
1.379442109285441420e-01
1.379442109285441420e-01
1.379442109285441420e-01
1.291555215896064146e-01
1.291555215896064146e-01
1.379442109285441420e-01
1.379442109285441420e-01
1.379442109285441420e-01
1.062285059228123829e-01
1.062285059228123829e-01
1.115781429117309875e-01
1.115781429117309875e-01
1.115781429117309875e-01
1.092854413450515816e-01
1.092854413450515816e-01
1.333588077951853301e-01
1.333588077951853301e-01
1.333588077951853301e-01
1.268628200229270087e-01
1.268628200229270087e-01
1.287734046618265182e-01
1.287734046618265182e-01
1.287734046618265182e-01
1.058463889950324865e-01
1.058463889950324865e-01
1.176920137562093988e-01
1.176920137562093988e-01
1.176920137562093988e-01
1.089033244172716852e-01
1.089033244172716852e-01
1.333588077951853301e-01
1.333588077951853301e-01
1.333588077951853301e-01
1.169277799006495921e-01
1.169277799006495921e-01
1.054642720672525763e-01
1.054642720672525763e-01
1.054642720672525763e-01
1.111960259839510912e-01
1.111960259839510912e-01
1.303018723729461315e-01
1.303018723729461315e-01
1.303018723729461315e-01
1.184562476117692054e-01
1.184562476117692054e-01
1.077569736339319822e-01
1.077569736339319822e-01
1.077569736339319822e-01
1.348872755063049156e-01
1.348872755063049156e-01
1.169277799006495921e-01
1.169277799006495921e-01
1.169277799006495921e-01
1.226595338173481070e-01
1.226595338173481070e-01
1.268628200229270087e-01
1.268628200229270087e-01
1.268628200229270087e-01
1.012609858616736747e-01
1.012609858616736747e-01
1.161635460450897994e-01
1.161635460450897994e-01
1.161635460450897994e-01
1.027894535727932740e-01
1.027894535727932740e-01
1.333588077951853301e-01
1.333588077951853301e-01
1.333588077951853301e-01
1.226595338173481070e-01
1.226595338173481070e-01
1.104317921283912846e-01
1.104317921283912846e-01
1.104317921283912846e-01
1.325945739396255374e-01
1.325945739396255374e-01
1.192204814673289981e-01
1.192204814673289981e-01
1.192204814673289981e-01
1.146350783339702001e-01
1.146350783339702001e-01
1.100496752006113882e-01
1.100496752006113882e-01
1.100496752006113882e-01
1.310661062285059242e-01
1.310661062285059242e-01
1.218952999617883004e-01
1.218952999617883004e-01
1.218952999617883004e-01
1.100496752006113882e-01
1.100496752006113882e-01
1.081390905617118786e-01
1.081390905617118786e-01
1.081390905617118786e-01
1.306839893007260278e-01
1.306839893007260278e-01
1.008788689338937783e-01
1.008788689338937783e-01
1.008788689338937783e-01
1.306839893007260278e-01
1.306839893007260278e-01
1.325945739396255374e-01
1.325945739396255374e-01
1.325945739396255374e-01
1.008788689338937783e-01
1.008788689338937783e-01
1.322124570118456133e-01
1.322124570118456133e-01
1.322124570118456133e-01
1.008788689338937783e-01
1.008788689338937783e-01
1.150171952617500964e-01
1.150171952617500964e-01
1.306839893007260278e-01
1.306839893007260278e-01
1.306839893007260278e-01
1.035536874283530806e-01
1.035536874283530806e-01
1.123423767672907941e-01
1.123423767672907941e-01
1.123423767672907941e-01
1.050821551394726799e-01
1.050821551394726799e-01
1.169277799006495921e-01
1.169277799006495921e-01
1.169277799006495921e-01
1.272449369507069050e-01
1.272449369507069050e-01
9.935040122277416508e-02
9.935040122277416508e-02
9.935040122277416508e-02
1.016431027894535710e-01
1.016431027894535710e-01
9.896828429499426871e-02
9.896828429499426871e-02
9.896828429499426871e-02
1.241880015284677063e-01
1.241880015284677063e-01
1.001146350783339717e-01
1.001146350783339717e-01
1.001146350783339717e-01
1.264807030951471123e-01
1.264807030951471123e-01
1.283912877340466219e-01
1.283912877340466219e-01
1.283912877340466219e-01
1.268628200229270087e-01
1.268628200229270087e-01
1.184562476117692054e-01
1.184562476117692054e-01
1.184562476117692054e-01
1.207489491784486113e-01
1.207489491784486113e-01
1.203668322506687011e-01
1.203668322506687011e-01
1.203668322506687011e-01
1.245701184562476166e-01
1.245701184562476166e-01
1.295376385173863110e-01
1.295376385173863110e-01
1.295376385173863110e-01
1.226595338173481070e-01
1.226595338173481070e-01
1.245701184562476166e-01
1.245701184562476166e-01
1.245701184562476166e-01
9.935040122277416508e-02
9.935040122277416508e-02
1.253343523118074232e-01
1.253343523118074232e-01
1.253343523118074232e-01
1.260985861673672159e-01
1.260985861673672159e-01
1.257164692395873196e-01
1.257164692395873196e-01
1.257164692395873196e-01
1.272449369507069050e-01
1.272449369507069050e-01
1.161635460450897994e-01
1.161635460450897994e-01
1.161635460450897994e-01
1.008788689338937783e-01
1.008788689338937783e-01
9.782193351165456574e-02
9.782193351165456574e-02
9.782193351165456574e-02
1.146350783339702001e-01
1.146350783339702001e-01
9.973251815055407532e-02
9.973251815055407532e-02
9.973251815055407532e-02
9.247229652273596112e-02
9.247229652273596112e-02
1.169277799006495921e-01
1.169277799006495921e-01
1.169277799006495921e-01
9.591134887275505616e-02
9.591134887275505616e-02
1.016431027894535710e-01
1.016431027894535710e-01
1.016431027894535710e-01
1.153993121895299928e-01
1.153993121895299928e-01
9.629346580053496640e-02
9.629346580053496640e-02
9.629346580053496640e-02
1.184562476117692054e-01
1.184562476117692054e-01
1.138708444784103935e-01
1.138708444784103935e-01
1.138708444784103935e-01
1.241880015284677063e-01
1.241880015284677063e-01
9.361864730607566409e-02
9.361864730607566409e-02
9.361864730607566409e-02
1.241880015284677063e-01
1.241880015284677063e-01
1.245701184562476166e-01
1.245701184562476166e-01
1.245701184562476166e-01
1.004967520061138680e-01
1.004967520061138680e-01
1.024073366450133776e-01
1.024073366450133776e-01
1.024073366450133776e-01
1.134887275506304971e-01
1.134887275506304971e-01
1.085212074894917889e-01
1.085212074894917889e-01
1.085212074894917889e-01
1.123423767672907941e-01
1.123423767672907941e-01
1.222774168895682106e-01
1.222774168895682106e-01
1.222774168895682106e-01
1.310661062285059242e-01
1.310661062285059242e-01
1.245701184562476166e-01
1.245701184562476166e-01
1.245701184562476166e-01
1.543752388230798522e-01
1.543752388230798522e-01
1.616354604508979664e-01
1.616354604508979664e-01
1.616354604508979664e-01
1.685135651509361843e-01
1.685135651509361843e-01
1.646923958731371929e-01
1.646923958731371929e-01
1.646923958731371929e-01
1.547573557508597764e-01
1.547573557508597764e-01
1.807413068398930067e-01
1.807413068398930067e-01
1.807413068398930067e-01
1.784486052732136008e-01
1.784486052732136008e-01
2.025219717233473493e-01
2.025219717233473493e-01
2.025219717233473493e-01
1.864730607565915077e-01
1.864730607565915077e-01
2.136033626289644549e-01
2.136033626289644549e-01
2.136033626289644549e-01
2.189529996178830595e-01
2.189529996178830595e-01
2.017577378677875566e-01
2.017577378677875566e-01
2.017577378677875566e-01
2.235384027512418714e-01
2.235384027512418714e-01
2.384409629346579962e-01
2.384409629346579962e-01
2.384409629346579962e-01
2.491402369124952332e-01
2.491402369124952332e-01
2.361482613679785902e-01
2.361482613679785902e-01
2.361482613679785902e-01
2.460833014902560067e-01
2.460833014902560067e-01
2.583110431792128292e-01
2.583110431792128292e-01
2.583110431792128292e-01
2.594573939625525183e-01
2.594573939625525183e-01
2.632785632403515375e-01
2.632785632403515375e-01
2.632785632403515375e-01
2.976690867405425989e-01
2.976690867405425989e-01
2.923194497516239942e-01
2.923194497516239942e-01
2.923194497516239942e-01
3.148643484906381573e-01
3.148643484906381573e-01
2.923194497516239942e-01
2.923194497516239942e-01
2.923194497516239942e-01
3.259457393962552629e-01
3.259457393962552629e-01
3.152464654184180537e-01
3.152464654184180537e-01
3.152464654184180537e-01
3.354986625907527831e-01
3.354986625907527831e-01
3.419946503630110768e-01
3.419946503630110768e-01
3.419946503630110768e-01
3.381734810852120576e-01
3.381734810852120576e-01
3.412304165074512841e-01
3.412304165074512841e-01
3.225066870462361401e-01
3.225066870462361401e-01
3.225066870462361401e-01
3.546045089797478234e-01
3.546045089797478234e-01
3.580435613297668906e-01
3.580435613297668906e-01
3.580435613297668906e-01
3.431410011463507659e-01
3.431410011463507659e-01
3.416125334352311804e-01
3.416125334352311804e-01
3.416125334352311804e-01
3.660680168131448253e-01
3.660680168131448253e-01
3.530760412686281824e-01
3.530760412686281824e-01
3.530760412686281824e-01
3.733282384409629118e-01
3.733282384409629118e-01
3.599541459686664280e-01
3.599541459686664280e-01
3.599541459686664280e-01
3.779136415743217237e-01
3.779136415743217237e-01
3.702713030187237409e-01
3.702713030187237409e-01
3.702713030187237409e-01
3.591899121131066352e-01
3.591899121131066352e-01
3.859380970576996583e-01
3.859380970576996583e-01
3.859380970576996583e-01
3.614826136797860134e-01
3.614826136797860134e-01
3.614826136797860134e-01
3.614826136797860134e-01
3.614826136797860134e-01
3.611004967520061171e-01
3.611004967520061171e-01
3.622468475353458062e-01
3.622468475353458062e-01
3.622468475353458062e-01
3.737103553687428081e-01
3.737103553687428081e-01
3.618647306075659098e-01
3.618647306075659098e-01
3.618647306075659098e-01
3.626289644631257025e-01
3.626289644631257025e-01
3.947267863966373858e-01
3.947267863966373858e-01
3.947267863966373858e-01
3.928162017577378484e-01
3.928162017577378484e-01
3.683607183798242035e-01
3.683607183798242035e-01
3.683607183798242035e-01
3.721818876576232227e-01
3.721818876576232227e-01
3.893771494077187811e-01
3.893771494077187811e-01
3.893771494077187811e-01
3.928162017577378484e-01
3.928162017577378484e-01
3.717997707298433263e-01
3.717997707298433263e-01
3.717997707298433263e-01
3.714176538020634299e-01
3.714176538020634299e-01
3.687428353076040999e-01
3.687428353076040999e-01
3.687428353076040999e-01
3.859380970576996583e-01
3.859380970576996583e-01
3.790599923576614683e-01
3.790599923576614683e-01
3.790599923576614683e-01
3.675964845242644108e-01
3.675964845242644108e-01
3.729461215131830154e-01
3.729461215131830154e-01
3.729461215131830154e-01
3.687428353076040999e-01
3.687428353076040999e-01
3.645395491020252399e-01
3.645395491020252399e-01
3.645395491020252399e-01
3.909056171188383666e-01
3.909056171188383666e-01
3.916698509743981593e-01
3.916698509743981593e-01
3.916698509743981593e-01
3.675964845242644108e-01
3.675964845242644108e-01
3.779136415743217237e-01
3.779136415743217237e-01
3.779136415743217237e-01
3.641574321742453435e-01
3.641574321742453435e-01
3.931983186855177448e-01
3.931983186855177448e-01
3.931983186855177448e-01
3.824990447076805355e-01
3.824990447076805355e-01
3.729461215131830154e-01
3.729461215131830154e-01
3.729461215131830154e-01
3.683607183798242035e-01
3.683607183798242035e-01
3.889950324799388848e-01
3.889950324799388848e-01
3.889950324799388848e-01
3.576614444019869943e-01
3.576614444019869943e-01
3.645395491020252399e-01
3.645395491020252399e-01
3.645395491020252399e-01
3.775315246465418273e-01
3.775315246465418273e-01
3.813526939243408465e-01
3.813526939243408465e-01
3.813526939243408465e-01
3.538402751241879751e-01
3.538402751241879751e-01
3.779136415743217237e-01
3.779136415743217237e-01
3.779136415743217237e-01
3.458158196408100959e-01
3.458158196408100959e-01
3.519296904852884933e-01
3.519296904852884933e-01
3.519296904852884933e-01
3.656858998853649290e-01
3.656858998853649290e-01
3.511654566297287006e-01
3.511654566297287006e-01
3.511654566297287006e-01
3.611004967520061171e-01
3.611004967520061171e-01
3.416125334352311804e-01
3.416125334352311804e-01
3.416125334352311804e-01
3.546045089797478234e-01
3.546045089797478234e-01
3.324417271685135566e-01
3.324417271685135566e-01
3.324417271685135566e-01
3.542223920519679270e-01
3.542223920519679270e-01
3.232709209017959329e-01
3.232709209017959329e-01
3.232709209017959329e-01
3.354986625907527831e-01
3.354986625907527831e-01
3.255636224684753666e-01
3.255636224684753666e-01
3.255636224684753666e-01
3.225066870462361401e-01
3.225066870462361401e-01
3.183034008406572246e-01
3.183034008406572246e-01
3.183034008406572246e-01
3.343523118074130940e-01
3.343523118074130940e-01
3.217424531906763474e-01
3.217424531906763474e-01
3.217424531906763474e-01
2.938479174627435797e-01
2.938479174627435797e-01
2.953763851738632207e-01
2.953763851738632207e-01
2.953763851738632207e-01
3.133358807795185164e-01
3.133358807795185164e-01
3.045471914405808445e-01
3.045471914405808445e-01
3.045471914405808445e-01
2.804738249904470959e-01
2.804738249904470959e-01
3.095147115017195527e-01
3.095147115017195527e-01
3.095147115017195527e-01
2.735957202904088503e-01
2.735957202904088503e-01
2.777990064959877659e-01
2.777990064959877659e-01
2.777990064959877659e-01
2.980512036683224952e-01
2.980512036683224952e-01
2.693924340848299348e-01
2.693924340848299348e-01
2.693924340848299348e-01
2.907909820405044088e-01
2.907909820405044088e-01
2.590752770347726219e-01
2.590752770347726219e-01
2.590752770347726219e-01
2.560183416125334510e-01
2.560183416125334510e-01
2.541077569736339137e-01
2.541077569736339137e-01
2.632785632403515375e-01
2.632785632403515375e-01
2.632785632403515375e-01
2.762705387848681804e-01
2.762705387848681804e-01
2.720672525792892649e-01
2.720672525792892649e-01
2.720672525792892649e-01
2.667176155903706603e-01
2.667176155903706603e-01
2.667176155903706603e-01
2.667176155903706603e-01
2.667176155903706603e-01
2.609858616736721593e-01
2.609858616736721593e-01
2.422621322124570153e-01
2.422621322124570153e-01
2.422621322124570153e-01
2.338555598012991843e-01
2.338555598012991843e-01
2.617500955292319520e-01
2.617500955292319520e-01
2.617500955292319520e-01
2.323270920901795988e-01
2.323270920901795988e-01
2.399694306457776094e-01
2.399694306457776094e-01
2.399694306457776094e-01
2.300343905235001929e-01
2.300343905235001929e-01
2.277416889568207869e-01
2.277416889568207869e-01
2.277416889568207869e-01
2.277416889568207869e-01
2.277416889568207869e-01
2.502865876958349500e-01
2.502865876958349500e-01
2.502865876958349500e-01
2.361482613679785902e-01
2.361482613679785902e-01
2.571646923958731401e-01
2.571646923958731401e-01
2.571646923958731401e-01
2.330913259457393916e-01
2.330913259457393916e-01
2.330913259457393916e-01
2.330913259457393916e-01
2.330913259457393916e-01
2.300343905235001929e-01
2.300343905235001929e-01
2.243026366068016919e-01
2.243026366068016919e-01
2.243026366068016919e-01
2.300343905235001929e-01
2.300343905235001929e-01
2.258311043179212774e-01
2.258311043179212774e-01
2.258311043179212774e-01
2.162781811234237572e-01
2.162781811234237572e-01
2.296522735957202965e-01
2.296522735957202965e-01
2.296522735957202965e-01
2.151318303400840681e-01
2.151318303400840681e-01
2.170424149789835777e-01
2.170424149789835777e-01
2.170424149789835777e-01
2.181887657623232668e-01
2.181887657623232668e-01
2.231562858234619751e-01
2.231562858234619751e-01
2.231562858234619751e-01
2.136033626289644549e-01
2.136033626289644549e-01
2.265953381734810979e-01
2.265953381734810979e-01
2.265953381734810979e-01
2.231562858234619751e-01
2.231562858234619751e-01
2.330913259457393916e-01
2.330913259457393916e-01
2.330913259457393916e-01
2.342376767290791084e-01
2.342376767290791084e-01
2.067252579289262648e-01
2.067252579289262648e-01
2.067252579289262648e-01
2.109285441345051526e-01
2.109285441345051526e-01
2.223920519679021823e-01
2.223920519679021823e-01
2.223920519679021823e-01
2.273595720290408906e-01
2.273595720290408906e-01
2.013756209400076325e-01
2.013756209400076325e-01
2.013756209400076325e-01
2.174245319067634741e-01
2.174245319067634741e-01
2.227741688956820787e-01
2.227741688956820787e-01
2.227741688956820787e-01
2.097821933511654635e-01
2.097821933511654635e-01
2.162781811234237572e-01
2.162781811234237572e-01
2.162781811234237572e-01
2.040504394344669348e-01
2.040504394344669348e-01
2.071073748567061612e-01
2.071073748567061612e-01
2.071073748567061612e-01
1.948796331677493388e-01
1.948796331677493388e-01
1.994650363011081506e-01
1.994650363011081506e-01
1.994650363011081506e-01
1.929690485288498292e-01
1.929690485288498292e-01
2.109285441345051526e-01
2.109285441345051526e-01
2.109285441345051526e-01
2.002292701566679434e-01
2.002292701566679434e-01
2.094000764233855671e-01
2.094000764233855671e-01
2.094000764233855671e-01
1.853267099732518186e-01
1.853267099732518186e-01
2.116927779900649731e-01
2.116927779900649731e-01
2.116927779900649731e-01
1.837982422621322054e-01
1.837982422621322054e-01
1.922048146732900364e-01
1.922048146732900364e-01
1.922048146732900364e-01
1.830340084065724127e-01
1.830340084065724127e-01
1.944975162399694424e-01
1.944975162399694424e-01
1.944975162399694424e-01
1.746274359954146094e-01
1.746274359954146094e-01
1.899121131066106305e-01
1.899121131066106305e-01
1.899121131066106305e-01
1.803591899121131104e-01
1.803591899121131104e-01
1.857088269010317150e-01
1.857088269010317150e-01
1.857088269010317150e-01
2.025219717233473493e-01
2.025219717233473493e-01
1.750095529231945057e-01
1.750095529231945057e-01
1.750095529231945057e-01
1.757737867787542985e-01
1.757737867787542985e-01
2.002292701566679434e-01
2.002292701566679434e-01
2.002292701566679434e-01
1.807413068398930067e-01
1.807413068398930067e-01
1.685135651509361843e-01
1.685135651509361843e-01
1.685135651509361843e-01
1.975544516622086411e-01
1.975544516622086411e-01
1.727168513565150998e-01
1.727168513565150998e-01
1.727168513565150998e-01
1.933511654566297255e-01
1.933511654566297255e-01
1.799770729843332140e-01
1.799770729843332140e-01
1.799770729843332140e-01
1.604891096675582773e-01
1.604891096675582773e-01
1.616354604508979664e-01
1.616354604508979664e-01
1.616354604508979664e-01
1.604891096675582773e-01
1.604891096675582773e-01
1.685135651509361843e-01
1.685135651509361843e-01
1.685135651509361843e-01
1.826518914787925163e-01
1.826518914787925163e-01
1.696599159342759011e-01
1.696599159342759011e-01
1.696599159342759011e-01
1.818876576232326958e-01
1.818876576232326958e-01
1.677493312953763915e-01
1.677493312953763915e-01
1.677493312953763915e-01
1.849445930454719222e-01
1.849445930454719222e-01
1.826518914787925163e-01
1.826518914787925163e-01
1.826518914787925163e-01
1.708062667176155902e-01
1.708062667176155902e-01
1.662208635842567783e-01
1.662208635842567783e-01
1.490256018341612476e-01
1.490256018341612476e-01
1.490256018341612476e-01
1.654566297286969856e-01
1.654566297286969856e-01
1.792128391287733935e-01
1.792128391287733935e-01
1.792128391287733935e-01
1.589606419564386641e-01
1.589606419564386641e-01
1.455865494841421526e-01
1.455865494841421526e-01
1.455865494841421526e-01
1.471150171952617380e-01
1.471150171952617380e-01
1.513183034008406536e-01
1.513183034008406536e-01
1.513183034008406536e-01
1.562858234619793618e-01
1.562858234619793618e-01
1.452044325563622562e-01
1.452044325563622562e-01
1.452044325563622562e-01
1.497898356897210681e-01
1.497898356897210681e-01
1.643102789453572687e-01
1.643102789453572687e-01
1.643102789453572687e-01
1.471150171952617380e-01
1.471150171952617380e-01
1.383263278563240384e-01
1.383263278563240384e-01
1.383263278563240384e-01
1.417653802063431334e-01
1.417653802063431334e-01
1.581964081008788714e-01
1.581964081008788714e-01
1.581964081008788714e-01
1.421474971341230298e-01
1.421474971341230298e-01
1.440580817730225394e-01
1.440580817730225394e-01
1.440580817730225394e-01
1.417653802063431334e-01
1.417653802063431334e-01
1.616354604508979664e-01
1.616354604508979664e-01
1.616354604508979664e-01
1.413832632785632371e-01
1.413832632785632371e-01
1.379442109285441420e-01
1.379442109285441420e-01
1.379442109285441420e-01
1.383263278563240384e-01
1.383263278563240384e-01
1.501719526175009645e-01
1.501719526175009645e-01
1.501719526175009645e-01
1.379442109285441420e-01
1.379442109285441420e-01
1.570500573175391545e-01
1.570500573175391545e-01
1.570500573175391545e-01
1.421474971341230298e-01
1.421474971341230298e-01
1.364157432174245288e-01
1.364157432174245288e-01
1.364157432174245288e-01
1.501719526175009645e-01
1.501719526175009645e-01
1.551394726786396727e-01
1.551394726786396727e-01
1.551394726786396727e-01
1.444401987008024357e-01
1.444401987008024357e-01
1.425296140619029539e-01
1.425296140619029539e-01
1.425296140619029539e-01
1.337409247229652265e-01
1.337409247229652265e-01
1.371799770729843215e-01
1.371799770729843215e-01
1.371799770729843215e-01
1.474971341230416622e-01
1.474971341230416622e-01
1.497898356897210681e-01
1.497898356897210681e-01
1.497898356897210681e-01
1.581964081008788714e-01
1.581964081008788714e-01
1.375620940007642456e-01
1.375620940007642456e-01
1.375620940007642456e-01
1.314482231562858205e-01
1.314482231562858205e-01
1.276270538784868291e-01
1.276270538784868291e-01
1.276270538784868291e-01
1.597248758119984846e-01
1.597248758119984846e-01
1.413832632785632371e-01
1.413832632785632371e-01
1.413832632785632371e-01
1.329766908674054338e-01
1.329766908674054338e-01
1.337409247229652265e-01
1.337409247229652265e-01
1.337409247229652265e-01
1.471150171952617380e-01
1.471150171952617380e-01
1.299197554451662073e-01
1.299197554451662073e-01
1.299197554451662073e-01
1.612533435231180701e-01
1.612533435231180701e-01
1.520825372564004463e-01
1.520825372564004463e-01
1.520825372564004463e-01
1.581964081008788714e-01
1.581964081008788714e-01
1.379442109285441420e-01
1.379442109285441420e-01
1.379442109285441420e-01
1.509361864730607572e-01
1.509361864730607572e-01
1.303018723729461315e-01
1.303018723729461315e-01
1.303018723729461315e-01
1.287734046618265182e-01
1.287734046618265182e-01
1.310661062285059242e-01
1.310661062285059242e-01
1.310661062285059242e-01
1.322124570118456133e-01
1.322124570118456133e-01
1.562858234619793618e-01
1.562858234619793618e-01
1.562858234619793618e-01
1.322124570118456133e-01
1.322124570118456133e-01
1.589606419564386641e-01
1.589606419564386641e-01
1.589606419564386641e-01
1.295376385173863110e-01
1.295376385173863110e-01
1.333588077951853301e-01
1.333588077951853301e-01
1.333588077951853301e-01
1.371799770729843215e-01
1.371799770729843215e-01
1.352693924340848397e-01
1.352693924340848397e-01
1.352693924340848397e-01
1.517004203286205499e-01
1.517004203286205499e-01
1.570500573175391545e-01
1.570500573175391545e-01
1.570500573175391545e-01
1.333588077951853301e-01
1.333588077951853301e-01
1.406190294230034443e-01
1.406190294230034443e-01
1.406190294230034443e-01
1.444401987008024357e-01
1.444401987008024357e-01
1.264807030951471123e-01
1.264807030951471123e-01
1.264807030951471123e-01
1.471150171952617380e-01
1.471150171952617380e-01
1.478792510508215585e-01
1.478792510508215585e-01
1.478792510508215585e-01
1.585785250286587678e-01
1.585785250286587678e-01
1.360336262896446324e-01
1.360336262896446324e-01
1.360336262896446324e-01
1.444401987008024357e-01
1.444401987008024357e-01
1.379442109285441420e-01
1.379442109285441420e-01
1.379442109285441420e-01
1.459686664119220489e-01
1.459686664119220489e-01
1.505540695452808608e-01
1.505540695452808608e-01
1.505540695452808608e-01
1.348872755063049156e-01
1.348872755063049156e-01
1.390905617118838311e-01
1.390905617118838311e-01
1.390905617118838311e-01
1.234237676729079136e-01
1.234237676729079136e-01
1.230416507451280034e-01
1.230416507451280034e-01
1.230416507451280034e-01
1.283912877340466219e-01
1.283912877340466219e-01
1.253343523118074232e-01
1.253343523118074232e-01
1.425296140619029539e-01
1.425296140619029539e-01
1.425296140619029539e-01
1.390905617118838311e-01
1.390905617118838311e-01
1.486434849063813513e-01
1.486434849063813513e-01
1.486434849063813513e-01
1.520825372564004463e-01
1.520825372564004463e-01
1.562858234619793618e-01
1.562858234619793618e-01
1.562858234619793618e-01
1.539931218952999559e-01
1.539931218952999559e-01
1.234237676729079136e-01
1.234237676729079136e-01
1.234237676729079136e-01
1.291555215896064146e-01
1.291555215896064146e-01
1.551394726786396727e-01
1.551394726786396727e-01
1.551394726786396727e-01
1.455865494841421526e-01
1.455865494841421526e-01
1.249522353840275130e-01
1.249522353840275130e-01
1.249522353840275130e-01
1.356515093618647361e-01
1.356515093618647361e-01
1.333588077951853301e-01
1.333588077951853301e-01
1.333588077951853301e-01
1.459686664119220489e-01
1.459686664119220489e-01
1.341230416507451229e-01
1.341230416507451229e-01
1.341230416507451229e-01
1.211310661062285077e-01
1.211310661062285077e-01
1.253343523118074232e-01
1.253343523118074232e-01
1.253343523118074232e-01
1.341230416507451229e-01
1.341230416507451229e-01
1.303018723729461315e-01
1.303018723729461315e-01
1.303018723729461315e-01
1.180741306839892951e-01
1.180741306839892951e-01
1.215131830340084040e-01
1.215131830340084040e-01
1.215131830340084040e-01
1.486434849063813513e-01
1.486434849063813513e-01
1.345051585785250192e-01
1.345051585785250192e-01
1.345051585785250192e-01
1.413832632785632371e-01
1.413832632785632371e-01
1.471150171952617380e-01
1.471150171952617380e-01
1.471150171952617380e-01
1.421474971341230298e-01
1.421474971341230298e-01
1.337409247229652265e-01
1.337409247229652265e-01
1.337409247229652265e-01
1.360336262896446324e-01
1.360336262896446324e-01
1.394726786396637275e-01
1.394726786396637275e-01
1.394726786396637275e-01
1.295376385173863110e-01
1.295376385173863110e-01
1.421474971341230298e-01
1.421474971341230298e-01
1.421474971341230298e-01
1.471150171952617380e-01
1.471150171952617380e-01
1.215131830340084040e-01
1.215131830340084040e-01
1.215131830340084040e-01
1.268628200229270087e-01
1.268628200229270087e-01
1.322124570118456133e-01
1.322124570118456133e-01
1.322124570118456133e-01
1.371799770729843215e-01
1.371799770729843215e-01
1.234237676729079136e-01
1.234237676729079136e-01
1.234237676729079136e-01
1.432938479174627466e-01
1.432938479174627466e-01
1.585785250286587678e-01
1.585785250286587678e-01
1.585785250286587678e-01
1.536110049675200595e-01
1.536110049675200595e-01
1.581964081008788714e-01
1.581964081008788714e-01
1.581964081008788714e-01
1.436759648452426430e-01
1.436759648452426430e-01
1.666029805120366747e-01
1.666029805120366747e-01
1.666029805120366747e-01
1.524646541841803704e-01
1.524646541841803704e-01
1.734810852120748925e-01
1.734810852120748925e-01
1.734810852120748925e-01
1.490256018341612476e-01
1.490256018341612476e-01
1.528467711119602668e-01
1.528467711119602668e-01
1.528467711119602668e-01
1.578142911730989750e-01
1.578142911730989750e-01
1.914405808177302160e-01
1.914405808177302160e-01
1.914405808177302160e-01
1.929690485288498292e-01
1.929690485288498292e-01
1.776843714176538080e-01
1.776843714176538080e-01
1.776843714176538080e-01
1.914405808177302160e-01
1.914405808177302160e-01
1.895299961788307341e-01
1.895299961788307341e-01
1.895299961788307341e-01
1.967902178066488483e-01
1.967902178066488483e-01
2.044325563622468589e-01
2.044325563622468589e-01
2.044325563622468589e-01
2.139854795567443513e-01
2.139854795567443513e-01
2.380588460068780998e-01
2.380588460068780998e-01
2.380588460068780998e-01
2.556362246847535546e-01
2.556362246847535546e-01
2.388230798624378926e-01
2.388230798624378926e-01
2.388230798624378926e-01
2.541077569736339137e-01
2.541077569736339137e-01
2.479938861291555163e-01
2.479938861291555163e-01
2.479938861291555163e-01
2.747420710737485394e-01
2.747420710737485394e-01
2.636606801681314338e-01
2.636606801681314338e-01
2.636606801681314338e-01
2.846771111960260114e-01
2.846771111960260114e-01
2.758884218570882840e-01
2.758884218570882840e-01
2.758884218570882840e-01
2.907909820405044088e-01
2.907909820405044088e-01
3.060756591517004299e-01
3.060756591517004299e-01
3.060756591517004299e-01
3.290026748184944339e-01
3.290026748184944339e-01
3.049293083683607408e-01
3.049293083683607408e-01
3.049293083683607408e-01
3.312953763851738676e-01
3.312953763851738676e-01
3.125716469239587236e-01
3.125716469239587236e-01
3.125716469239587236e-01
3.354986625907527831e-01
3.354986625907527831e-01
3.442873519296905105e-01
3.442873519296905105e-01
3.442873519296905105e-01
3.343523118074130940e-01
3.343523118074130940e-01
3.416125334352311804e-01
3.416125334352311804e-01
3.416125334352311804e-01
3.660680168131448253e-01
3.660680168131448253e-01
3.626289644631257025e-01
3.626289644631257025e-01
3.626289644631257025e-01
3.439052350019105586e-01
3.439052350019105586e-01
3.519296904852884933e-01
3.519296904852884933e-01
3.519296904852884933e-01
3.500191058463890115e-01
3.500191058463890115e-01
3.851738632021398656e-01
3.851738632021398656e-01
3.851738632021398656e-01
3.851738632021398656e-01
3.851738632021398656e-01
3.779136415743217237e-01
3.779136415743217237e-01
3.626289644631257025e-01
3.626289644631257025e-01
3.626289644631257025e-01
3.779136415743217237e-01
3.779136415743217237e-01
3.912877340466182630e-01
3.912877340466182630e-01
3.912877340466182630e-01
3.695070691631639481e-01
3.695070691631639481e-01
3.729461215131830154e-01
3.729461215131830154e-01
3.729461215131830154e-01
3.962552541077569712e-01
3.962552541077569712e-01
3.977837218188765567e-01
3.977837218188765567e-01
3.977837218188765567e-01
3.786778754298815164e-01
3.786778754298815164e-01
3.897592663354986775e-01
3.897592663354986775e-01
3.897592663354986775e-01
4.088651127244937178e-01
4.088651127244937178e-01
3.958731371799770749e-01
3.958731371799770749e-01
3.958731371799770749e-01
3.790599923576614683e-01
3.790599923576614683e-01
4.065724111578142841e-01
4.065724111578142841e-01
4.065724111578142841e-01
3.920519679021780557e-01
3.920519679021780557e-01
3.993121895299961976e-01
3.993121895299961976e-01
3.993121895299961976e-01
3.828811616354604319e-01
3.828811616354604319e-01
3.851738632021398656e-01
3.851738632021398656e-01
3.851738632021398656e-01
3.817348108521207428e-01
3.817348108521207428e-01
4.123041650745127851e-01
4.123041650745127851e-01
4.123041650745127851e-01
3.954910202521971785e-01
3.954910202521971785e-01
4.130683989300725778e-01
4.130683989300725778e-01
4.130683989300725778e-01
3.847917462743599692e-01
3.847917462743599692e-01
4.119220481467328887e-01
4.119220481467328887e-01
4.119220481467328887e-01
3.863202139854795547e-01
3.863202139854795547e-01
3.828811616354604319e-01
3.828811616354604319e-01
3.828811616354604319e-01
3.847917462743599692e-01
3.847917462743599692e-01
4.088651127244937178e-01
4.088651127244937178e-01
4.088651127244937178e-01
4.058081773022544914e-01
4.058081773022544914e-01
3.828811616354604319e-01
3.828811616354604319e-01
3.828811616354604319e-01
3.977837218188765567e-01
3.977837218188765567e-01
3.836453954910202246e-01
3.836453954910202246e-01
3.836453954910202246e-01
3.828811616354604319e-01
3.828811616354604319e-01
3.947267863966373858e-01
3.947267863966373858e-01
3.947267863966373858e-01
3.912877340466182630e-01
3.912877340466182630e-01
3.824990447076805355e-01
3.824990447076805355e-01
3.824990447076805355e-01
4.065724111578142841e-01
4.065724111578142841e-01
3.756209400076423455e-01
3.756209400076423455e-01
3.756209400076423455e-01
3.763851738632021382e-01
3.763851738632021382e-01
3.958731371799770749e-01
3.958731371799770749e-01
3.958731371799770749e-01
3.851738632021398656e-01
3.851738632021398656e-01
3.737103553687428081e-01
3.737103553687428081e-01
3.737103553687428081e-01
3.710355368742835336e-01
3.710355368742835336e-01
3.928162017577378484e-01
3.928162017577378484e-01
3.928162017577378484e-01
3.974016048910966603e-01
3.974016048910966603e-01
3.672143675964845144e-01
3.672143675964845144e-01
3.672143675964845144e-01
3.870844478410393474e-01
3.870844478410393474e-01
3.782957585021016200e-01
3.782957585021016200e-01
3.782957585021016200e-01
3.771494077187619309e-01
3.771494077187619309e-01
3.878486816965991402e-01
3.878486816965991402e-01
3.878486816965991402e-01
3.832632785632403283e-01
3.832632785632403283e-01
3.519296904852884933e-01
3.519296904852884933e-01
3.519296904852884933e-01
3.714176538020634299e-01
3.714176538020634299e-01
3.576614444019869943e-01
3.576614444019869943e-01
3.576614444019869943e-01
3.504012227741689078e-01
3.504012227741689078e-01
3.385555980129919540e-01
3.385555980129919540e-01
3.385555980129919540e-01
3.366450133740924722e-01
3.366450133740924722e-01
3.561329766908674088e-01
3.561329766908674088e-01
3.561329766908674088e-01
3.316774933129537639e-01
3.316774933129537639e-01
3.312953763851738676e-01
3.312953763851738676e-01
3.312953763851738676e-01
3.251815055406954702e-01
3.251815055406954702e-01
3.397019487963316986e-01
3.397019487963316986e-01
3.397019487963316986e-01
3.282384409629346411e-01
3.282384409629346411e-01
3.198318685517768656e-01
3.198318685517768656e-01
3.198318685517768656e-01
3.228888039740160365e-01
3.228888039740160365e-01
3.225066870462361401e-01
3.225066870462361401e-01
3.225066870462361401e-01
3.060756591517004299e-01
3.060756591517004299e-01
3.045471914405808445e-01
3.045471914405808445e-01
3.045471914405808445e-01
2.946121513183034279e-01
2.946121513183034279e-01
2.995796713794421362e-01
2.995796713794421362e-01
2.995796713794421362e-01
2.942300343905234761e-01
2.942300343905234761e-01
2.904088651127245124e-01
2.904088651127245124e-01
2.904088651127245124e-01
2.804738249904470959e-01
2.804738249904470959e-01
3.041650745128008926e-01
3.041650745128008926e-01
3.041650745128008926e-01
2.953763851738632207e-01
2.953763851738632207e-01
2.770347726404279731e-01
2.770347726404279731e-01
2.770347726404279731e-01
2.835307604126862668e-01
2.835307604126862668e-01
2.869698127627053896e-01
2.869698127627053896e-01
2.869698127627053896e-01
2.900267481849446161e-01
2.900267481849446161e-01
2.865876958349254933e-01
2.865876958349254933e-01
2.865876958349254933e-01
2.682460833014902457e-01
2.682460833014902457e-01
2.816201757737867850e-01
2.816201757737867850e-01
2.793274742071073513e-01
2.793274742071073513e-01
2.793274742071073513e-01
2.735957202904088503e-01
2.735957202904088503e-01
2.739778372181887467e-01
2.739778372181887467e-01
2.739778372181887467e-01
2.533435231180741209e-01
2.533435231180741209e-01
2.479938861291555163e-01
2.479938861291555163e-01
2.479938861291555163e-01
2.479938861291555163e-01
2.479938861291555163e-01
2.529614061902942246e-01
2.529614061902942246e-01
2.529614061902942246e-01
2.479938861291555163e-01
2.479938861291555163e-01
2.560183416125334510e-01
2.560183416125334510e-01
2.560183416125334510e-01
2.743599541459686431e-01
2.743599541459686431e-01
2.441727168513565249e-01
2.441727168513565249e-01
2.441727168513565249e-01
2.426442491402369117e-01
2.426442491402369117e-01
2.701566679403897830e-01
2.701566679403897830e-01
2.701566679403897830e-01
2.674818494459304530e-01
2.674818494459304530e-01
2.411157814291172985e-01
2.411157814291172985e-01
2.411157814291172985e-01
2.682460833014902457e-01
2.682460833014902457e-01
2.541077569736339137e-01
2.541077569736339137e-01
2.541077569736339137e-01
2.380588460068780998e-01
2.380588460068780998e-01
2.437905999235766008e-01
2.437905999235766008e-01
2.437905999235766008e-01
2.392051967902178167e-01
2.392051967902178167e-01
2.338555598012991843e-01
2.338555598012991843e-01
2.338555598012991843e-01
2.372946121513183071e-01
2.372946121513183071e-01
2.518150554069545355e-01
2.518150554069545355e-01
2.518150554069545355e-01
2.506687046236148464e-01
2.506687046236148464e-01
2.273595720290408906e-01
2.273595720290408906e-01
2.273595720290408906e-01
2.300343905235001929e-01
2.300343905235001929e-01
2.441727168513565249e-01
2.441727168513565249e-01
2.441727168513565249e-01
2.243026366068016919e-01
2.243026366068016919e-01
2.392051967902178167e-01
2.392051967902178167e-01
2.392051967902178167e-01
2.223920519679021823e-01
2.223920519679021823e-01
2.281238058846006833e-01
2.281238058846006833e-01
2.281238058846006833e-01
2.499044707680550259e-01
2.499044707680550259e-01
2.223920519679021823e-01
2.223920519679021823e-01
2.223920519679021823e-01
2.430263660680168081e-01
2.430263660680168081e-01
2.315628582346198061e-01
2.315628582346198061e-01
2.315628582346198061e-01
2.384409629346579962e-01
2.384409629346579962e-01
2.273595720290408906e-01
2.273595720290408906e-01
2.273595720290408906e-01
2.124570118456247658e-01
2.124570118456247658e-01
2.189529996178830595e-01
2.189529996178830595e-01
2.189529996178830595e-01
2.178066488345433704e-01
2.178066488345433704e-01
2.086358425678257467e-01
2.086358425678257467e-01
2.086358425678257467e-01
2.357661444401986939e-01
2.357661444401986939e-01
2.357661444401986939e-01
2.357661444401986939e-01
2.357661444401986939e-01
2.044325563622468589e-01
2.044325563622468589e-01
2.235384027512418714e-01
2.235384027512418714e-01
2.235384027512418714e-01
2.300343905235001929e-01
2.300343905235001929e-01
2.285059228123805797e-01
2.285059228123805797e-01
2.285059228123805797e-01
2.132212457011845586e-01
2.132212457011845586e-01
2.040504394344669348e-01
2.040504394344669348e-01
2.040504394344669348e-01
2.132212457011845586e-01
2.132212457011845586e-01
2.262132212457011737e-01
2.262132212457011737e-01
2.262132212457011737e-01
2.239205196790217678e-01
2.239205196790217678e-01
2.124570118456247658e-01
2.124570118456247658e-01
2.124570118456247658e-01
2.113106610622850490e-01
2.113106610622850490e-01
2.197172334734428800e-01
2.197172334734428800e-01
2.197172334734428800e-01
1.906763469621704232e-01
1.906763469621704232e-01
2.174245319067634741e-01
2.174245319067634741e-01
2.174245319067634741e-01
1.864730607565915077e-01
1.864730607565915077e-01
2.078716087122659539e-01
2.078716087122659539e-01
2.078716087122659539e-01
2.139854795567443513e-01
2.139854795567443513e-01
1.868551776843714041e-01
1.868551776843714041e-01
1.868551776843714041e-01
2.116927779900649731e-01
2.116927779900649731e-01
1.967902178066488483e-01
1.967902178066488483e-01
1.967902178066488483e-01
1.944975162399694424e-01
1.944975162399694424e-01
1.876194115399312246e-01
1.876194115399312246e-01
1.876194115399312246e-01
1.883836453954910173e-01
1.883836453954910173e-01
2.078716087122659539e-01
2.078716087122659539e-01
2.078716087122659539e-01
2.040504394344669348e-01
2.040504394344669348e-01
2.040504394344669348e-01
2.040504394344669348e-01
2.040504394344669348e-01
1.711883836453954866e-01
1.711883836453954866e-01
1.979365685899885374e-01
1.979365685899885374e-01
1.979365685899885374e-01
1.685135651509361843e-01
1.685135651509361843e-01
1.994650363011081506e-01
1.994650363011081506e-01
1.994650363011081506e-01
1.818876576232326958e-01
1.818876576232326958e-01
1.662208635842567783e-01
1.662208635842567783e-01
1.662208635842567783e-01
1.673672143675964952e-01
1.673672143675964952e-01
1.860909438288116113e-01
1.860909438288116113e-01
1.860909438288116113e-01
1.799770729843332140e-01
1.799770729843332140e-01
1.616354604508979664e-01
1.616354604508979664e-01
1.616354604508979664e-01
1.734810852120748925e-01
1.734810852120748925e-01
1.887657623232709136e-01
1.887657623232709136e-01
1.887657623232709136e-01
1.887657623232709136e-01
1.887657623232709136e-01
1.673672143675964952e-01
1.673672143675964952e-01
1.784486052732136008e-01
1.784486052732136008e-01
1.784486052732136008e-01
1.555215896064195691e-01
1.555215896064195691e-01
1.581964081008788714e-01
1.581964081008788714e-01
1.581964081008788714e-01
1.803591899121131104e-01
1.803591899121131104e-01
1.681314482231562879e-01
1.681314482231562879e-01
1.681314482231562879e-01
1.807413068398930067e-01
1.807413068398930067e-01
1.517004203286205499e-01
1.517004203286205499e-01
1.517004203286205499e-01
1.532288880397401631e-01
1.532288880397401631e-01
1.551394726786396727e-01
1.551394726786396727e-01
1.551394726786396727e-01
1.578142911730989750e-01
1.578142911730989750e-01
1.520825372564004463e-01
1.520825372564004463e-01
1.520825372564004463e-01
1.639281620175773724e-01
1.639281620175773724e-01
1.803591899121131104e-01
1.803591899121131104e-01
1.803591899121131104e-01
1.681314482231562879e-01
1.681314482231562879e-01
1.734810852120748925e-01
1.734810852120748925e-01
1.734810852120748925e-01
1.631639281620175796e-01
1.631639281620175796e-01
1.631639281620175796e-01
1.631639281620175796e-01
1.631639281620175796e-01
1.574321742453190787e-01
1.574321742453190787e-01
1.738632021398547889e-01
1.738632021398547889e-01
1.738632021398547889e-01
1.444401987008024357e-01
1.444401987008024357e-01
1.578142911730989750e-01
1.578142911730989750e-01
1.578142911730989750e-01
1.494077187619411440e-01
1.494077187619411440e-01
1.505540695452808608e-01
1.505540695452808608e-01
1.505540695452808608e-01
1.432938479174627466e-01
1.432938479174627466e-01
1.471150171952617380e-01
1.471150171952617380e-01
1.471150171952617380e-01
1.440580817730225394e-01
1.440580817730225394e-01
1.585785250286587678e-01
1.585785250286587678e-01
1.585785250286587678e-01
1.734810852120748925e-01
1.734810852120748925e-01
1.467329002674818417e-01
1.467329002674818417e-01
1.467329002674818417e-01
1.474971341230416622e-01
1.474971341230416622e-01
1.452044325563622562e-01
1.452044325563622562e-01
1.452044325563622562e-01
1.581964081008788714e-01
1.581964081008788714e-01
1.704241497898356938e-01
1.704241497898356938e-01
1.704241497898356938e-01
1.551394726786396727e-01
1.551394726786396727e-01
1.410011463507833407e-01
1.410011463507833407e-01
1.410011463507833407e-01
1.673672143675964952e-01
1.673672143675964952e-01
1.367978601452044252e-01
1.367978601452044252e-01
1.367978601452044252e-01
1.639281620175773724e-01
1.639281620175773724e-01
1.494077187619411440e-01
1.494077187619411440e-01
1.494077187619411440e-01
1.364157432174245288e-01
1.364157432174245288e-01
1.547573557508597764e-01
1.547573557508597764e-01
1.547573557508597764e-01
1.631639281620175796e-01
1.631639281620175796e-01
1.371799770729843215e-01
1.371799770729843215e-01
1.371799770729843215e-01
1.566679403897592582e-01
1.566679403897592582e-01
1.658387466564768820e-01
1.658387466564768820e-01
1.658387466564768820e-01
1.360336262896446324e-01
1.360336262896446324e-01
1.578142911730989750e-01
1.578142911730989750e-01
1.578142911730989750e-01
1.360336262896446324e-01
1.360336262896446324e-01
1.452044325563622562e-01
1.452044325563622562e-01
1.452044325563622562e-01
1.329766908674054338e-01
1.329766908674054338e-01
1.494077187619411440e-01
1.494077187619411440e-01
1.494077187619411440e-01
1.341230416507451229e-01
1.341230416507451229e-01
1.352693924340848397e-01
1.352693924340848397e-01
1.352693924340848397e-01
1.631639281620175796e-01
1.631639281620175796e-01
1.639281620175773724e-01
1.639281620175773724e-01
1.639281620175773724e-01
1.333588077951853301e-01
1.333588077951853301e-01
1.463507833397019453e-01
1.463507833397019453e-01
1.463507833397019453e-01
1.486434849063813513e-01
1.486434849063813513e-01
1.517004203286205499e-01
1.517004203286205499e-01
1.517004203286205499e-01
1.543752388230798522e-01
1.543752388230798522e-01
1.318303400840657169e-01
1.318303400840657169e-01
1.318303400840657169e-01
1.303018723729461315e-01
1.303018723729461315e-01
1.333588077951853301e-01
1.333588077951853301e-01
1.333588077951853301e-01
1.467329002674818417e-01
1.467329002674818417e-01
1.570500573175391545e-01
1.570500573175391545e-01
1.570500573175391545e-01
1.532288880397401631e-01
1.532288880397401631e-01
1.635460450897974760e-01
1.635460450897974760e-01
1.635460450897974760e-01
1.459686664119220489e-01
1.459686664119220489e-01
1.517004203286205499e-01
1.517004203286205499e-01
1.517004203286205499e-01
1.379442109285441420e-01
1.379442109285441420e-01
1.455865494841421526e-01
1.455865494841421526e-01
1.455865494841421526e-01
1.287734046618265182e-01
1.287734046618265182e-01
1.306839893007260278e-01
1.306839893007260278e-01
1.306839893007260278e-01
1.291555215896064146e-01
1.291555215896064146e-01
1.283912877340466219e-01
1.283912877340466219e-01
1.283912877340466219e-01
1.524646541841803704e-01
1.524646541841803704e-01
1.360336262896446324e-01
1.360336262896446324e-01
1.360336262896446324e-01
1.570500573175391545e-01
1.570500573175391545e-01
1.303018723729461315e-01
1.303018723729461315e-01
1.303018723729461315e-01
1.402369124952235480e-01
1.402369124952235480e-01
1.387084447841039347e-01
1.387084447841039347e-01
1.429117309896828503e-01
1.429117309896828503e-01
1.429117309896828503e-01
1.486434849063813513e-01
1.486434849063813513e-01
1.570500573175391545e-01
1.570500573175391545e-01
1.570500573175391545e-01
1.539931218952999559e-01
1.539931218952999559e-01
1.280091708062667255e-01
1.280091708062667255e-01
1.280091708062667255e-01
1.608712265953381737e-01
1.608712265953381737e-01
1.268628200229270087e-01
1.268628200229270087e-01
1.268628200229270087e-01
1.585785250286587678e-01
1.585785250286587678e-01
1.413832632785632371e-01
1.413832632785632371e-01
1.413832632785632371e-01
1.581964081008788714e-01
1.581964081008788714e-01
1.352693924340848397e-01
1.352693924340848397e-01
1.352693924340848397e-01
1.306839893007260278e-01
1.306839893007260278e-01
1.501719526175009645e-01
1.501719526175009645e-01
1.501719526175009645e-01
1.402369124952235480e-01
1.402369124952235480e-01
1.532288880397401631e-01
1.532288880397401631e-01
1.532288880397401631e-01
1.494077187619411440e-01
1.494077187619411440e-01
1.291555215896064146e-01
1.291555215896064146e-01
1.291555215896064146e-01
1.597248758119984846e-01
1.597248758119984846e-01
1.371799770729843215e-01
1.371799770729843215e-01
1.371799770729843215e-01
1.299197554451662073e-01
1.299197554451662073e-01
1.547573557508597764e-01
1.547573557508597764e-01
1.547573557508597764e-01
1.318303400840657169e-01
1.318303400840657169e-01
1.429117309896828503e-01
1.429117309896828503e-01
1.429117309896828503e-01
1.597248758119984846e-01
1.597248758119984846e-01
1.287734046618265182e-01
1.287734046618265182e-01
1.287734046618265182e-01
1.551394726786396727e-01
1.551394726786396727e-01
1.283912877340466219e-01
1.283912877340466219e-01
1.283912877340466219e-01
1.539931218952999559e-01
1.539931218952999559e-01
1.333588077951853301e-01
1.333588077951853301e-01
1.333588077951853301e-01
1.367978601452044252e-01
1.367978601452044252e-01
1.478792510508215585e-01
1.478792510508215585e-01
1.478792510508215585e-01
1.490256018341612476e-01
1.490256018341612476e-01
1.367978601452044252e-01
1.367978601452044252e-01
1.367978601452044252e-01
1.283912877340466219e-01
1.283912877340466219e-01
1.215131830340084040e-01
1.215131830340084040e-01
1.215131830340084040e-01
1.241880015284677063e-01
1.241880015284677063e-01
1.536110049675200595e-01
1.536110049675200595e-01
1.536110049675200595e-01
1.276270538784868291e-01
1.276270538784868291e-01
1.459686664119220489e-01
1.459686664119220489e-01
1.459686664119220489e-01
1.467329002674818417e-01
1.467329002674818417e-01
1.398547955674436516e-01
1.398547955674436516e-01
1.398547955674436516e-01
1.249522353840275130e-01
1.249522353840275130e-01
1.532288880397401631e-01
1.532288880397401631e-01
1.532288880397401631e-01
1.291555215896064146e-01
1.291555215896064146e-01
1.551394726786396727e-01
1.551394726786396727e-01
1.551394726786396727e-01
1.566679403897592582e-01
1.566679403897592582e-01
1.390905617118838311e-01
1.390905617118838311e-01
1.390905617118838311e-01
1.280091708062667255e-01
1.280091708062667255e-01
1.551394726786396727e-01
1.551394726786396727e-01
1.551394726786396727e-01
1.413832632785632371e-01
1.413832632785632371e-01
1.459686664119220489e-01
1.459686664119220489e-01
1.459686664119220489e-01
1.444401987008024357e-01
1.444401987008024357e-01
1.597248758119984846e-01
1.597248758119984846e-01
1.597248758119984846e-01
1.570500573175391545e-01
1.570500573175391545e-01
1.333588077951853301e-01
1.333588077951853301e-01
1.333588077951853301e-01
1.432938479174627466e-01
1.432938479174627466e-01
1.398547955674436516e-01
1.398547955674436516e-01
1.398547955674436516e-01
1.406190294230034443e-01
1.406190294230034443e-01
1.776843714176538080e-01
1.776843714176538080e-01
1.776843714176538080e-01
1.753916698509744021e-01
1.753916698509744021e-01
1.578142911730989750e-01
1.578142911730989750e-01
1.578142911730989750e-01
1.887657623232709136e-01
1.887657623232709136e-01
1.837982422621322054e-01
1.837982422621322054e-01
1.837982422621322054e-01
1.979365685899885374e-01
1.979365685899885374e-01
1.837982422621322054e-01
1.837982422621322054e-01
1.837982422621322054e-01
1.830340084065724127e-01
1.830340084065724127e-01
1.983186855177684338e-01
1.983186855177684338e-01
1.983186855177684338e-01
2.239205196790217678e-01
2.239205196790217678e-01
2.009935040122277361e-01
2.009935040122277361e-01
2.009935040122277361e-01
2.178066488345433704e-01
2.178066488345433704e-01
2.357661444401986939e-01
2.357661444401986939e-01
2.357661444401986939e-01
2.548719908291937064e-01
2.548719908291937064e-01
2.307986243790599856e-01
2.307986243790599856e-01
2.307986243790599856e-01
2.735957202904088503e-01
2.735957202904088503e-01
2.495223538402751295e-01
2.495223538402751295e-01
2.495223538402751295e-01
2.789453572793274549e-01
2.789453572793274549e-01
2.705387848681696794e-01
2.705387848681696794e-01
2.705387848681696794e-01
2.915552158960642015e-01
2.915552158960642015e-01
2.804738249904470959e-01
2.804738249904470959e-01
2.804738249904470959e-01
3.190676346962170173e-01
3.190676346962170173e-01
3.053114252961406372e-01
3.053114252961406372e-01
3.068398930072602226e-01
3.068398930072602226e-01
3.068398930072602226e-01
3.068398930072602226e-01
3.068398930072602226e-01
3.213603362628964510e-01
3.213603362628964510e-01
3.213603362628964510e-01
3.297669086740542821e-01
3.297669086740542821e-01
3.568972105464272015e-01
3.568972105464272015e-01
3.568972105464272015e-01
3.595720290408865316e-01
3.595720290408865316e-01
3.458158196408100959e-01
3.458158196408100959e-01
3.458158196408100959e-01
3.595720290408865316e-01
3.595720290408865316e-01
3.553687428353076161e-01
3.553687428353076161e-01
3.553687428353076161e-01
3.565150936186473052e-01
3.565150936186473052e-01
3.595720290408865316e-01
3.595720290408865316e-01
3.595720290408865316e-01
3.924340848299579521e-01
3.924340848299579521e-01
3.683607183798242035e-01
3.683607183798242035e-01
