5.429881543752388406e-01
5.338173481085212169e-01
5.578907145586549099e-01
5.403133358807795661e-01
5.246465418418035931e-01
5.307604126862820459e-01
5.364921666029804914e-01
5.338173481085212169e-01
5.555980129919755317e-01
5.200611387084448367e-01
5.399312189529996697e-01
5.265571264807030749e-01
5.307604126862820459e-01
5.334352311807413205e-01
5.185326709973251402e-01
5.349636988918609060e-01
5.154757355750859693e-01
5.563622468475353244e-01
5.341994650363011132e-01
5.212074894917845258e-01
5.506304929308368790e-01
5.502483760030569826e-01
5.399312189529996697e-01
5.242644249140236967e-01
5.200611387084448367e-01
5.307604126862820459e-01
5.185326709973251402e-01
5.166220863584256584e-01
5.261750095529231785e-01
5.414596866641192552e-01
5.154757355750859693e-01
5.135651509361864875e-01
5.471914405808177007e-01
5.338173481085212169e-01
5.460450897974780116e-01
5.212074894917845258e-01
5.334352311807413205e-01
5.181505540695452439e-01
5.154757355750859693e-01
5.185326709973251402e-01
5.292319449751623495e-01
5.170042032862055548e-01
5.154757355750859693e-01
5.261750095529231785e-01
5.303782957585021496e-01
5.246465418418035931e-01
5.414596866641192552e-01
5.334352311807413205e-01
5.139472678639663838e-01
5.124188001528467984e-01
5.257928926251432822e-01
5.166220863584256584e-01
5.277034772640427640e-01
5.013374092472296928e-01
5.001910584638900037e-01
5.001910584638900037e-01
5.001910584638900037e-01
4.864348490638135125e-01
5.124188001528467984e-01
5.005731753916699001e-01
4.940771876194115508e-01
5.074512800917080346e-01
4.894917844860527389e-01
5.181505540695452439e-01
4.787925105082155297e-01
4.803209782193351152e-01
4.898739014138326353e-01
4.757355750859763033e-01
4.726786396637370768e-01
4.757355750859763033e-01
5.063049293083683455e-01
5.013374092472296928e-01
4.738249904470768215e-01
4.539549102025219884e-01
4.799388612915552188e-01
4.573939625525410557e-01
4.814673290026748043e-01
4.864348490638135125e-01
4.589224302636606967e-01
4.512800917080626584e-01
4.787925105082155297e-01
4.661826518914787831e-01
4.650363011081390940e-01
4.528085594191822438e-01
4.711501719526174914e-01
4.665647688192586795e-01
4.512800917080626584e-01
4.451662208635842610e-01
4.436377531524646756e-01
4.558654948414214703e-01
4.493695070691631765e-01
4.287351929690485508e-01
4.314100114635078254e-01
4.497516239969430729e-01
4.543370271303018848e-01
4.176538020634313897e-01
4.233855559801299462e-01
4.344669468857470518e-01
4.493695070691631765e-01
4.310278945357279290e-01
4.252961406190294280e-01
4.497516239969430729e-01
4.447841039358043647e-01
4.111578142911730960e-01
4.386702330913259673e-01
4.096293465800535105e-01
4.356132976690867409e-01
4.069545280855941805e-01
3.958731371799770749e-01
3.931983186855177448e-01
3.836453954910202246e-01
4.100114635078334069e-01
3.928162017577378484e-01
3.824990447076805355e-01
4.130683989300725778e-01
3.733282384409629118e-01
4.115399312189529923e-01
3.794421092854413646e-01
4.019870080244554722e-01
4.126862820022926814e-01
3.821169277799006392e-01
3.916698509743981593e-01
3.870844478410393474e-01
3.729461215131830154e-01
4.050439434466946986e-01
3.748567061520825527e-01
3.855559801299197620e-01
3.653037829575850326e-01
3.836453954910202246e-01
3.901413832632785739e-01
3.683607183798242035e-01
3.779136415743217237e-01
3.488727550630492669e-01
3.534581581964080788e-01
3.519296904852884933e-01
3.504012227741689078e-01
3.580435613297668906e-01
3.458158196408100959e-01
3.442873519296905105e-01
3.672143675964845144e-01
3.515475735575085969e-01
3.679786014520443072e-01
3.458158196408100959e-01
3.458158196408100959e-01
3.683607183798242035e-01
3.698891860909438445e-01
3.469621704241497850e-01
3.274742071073748484e-01
3.534581581964080788e-01
3.656858998853649290e-01
3.412304165074512841e-01
3.504012227741689078e-01
3.320596102407336603e-01
3.198318685517768656e-01
3.576614444019869943e-01
3.546045089797478234e-01
3.125716469239587236e-01
3.305311425296140748e-01
3.286205578907145375e-01
3.473442873519296814e-01
3.167749331295376392e-01
3.209782193351165547e-01
3.259457393962552629e-01
3.473442873519296814e-01
3.381734810852120576e-01
3.362628964463125758e-01
3.442873519296905105e-01
3.060756591517004299e-01
3.076041268628200154e-01
3.259457393962552629e-01
3.244172716851356775e-01
3.362628964463125758e-01
3.362628964463125758e-01
3.091325945739396008e-01
3.351165456629728867e-01
3.014902560183416180e-01
3.332059610240733494e-01
3.026366068016813071e-01
2.965227359572029098e-01
3.332059610240733494e-01
3.244172716851356775e-01
3.270920901795949520e-01
3.228888039740160365e-01
3.244172716851356775e-01
2.995796713794421362e-01
3.198318685517768656e-01
3.228888039740160365e-01
3.041650745128008926e-01
2.858234619793657005e-01
3.091325945739396008e-01
3.183034008406572246e-01
2.877340466182651824e-01
3.045471914405808445e-01
3.133358807795185164e-01
3.163928162017577428e-01
3.121895299961788273e-01
3.102789453572793454e-01
3.133358807795185164e-01
3.167749331295376392e-01
3.106610622850592418e-01
2.984333205961023916e-01
2.873519296904852860e-01
2.816201757737867850e-01
2.797095911348873032e-01
2.999617883072220326e-01
2.785632403515475586e-01
2.797095911348873032e-01
3.076041268628200154e-01
3.045471914405808445e-01
2.785632403515475586e-01
2.766526557126480768e-01
2.735957202904088503e-01
2.678639663737103493e-01
2.663354986625907639e-01
2.648070309514711229e-01
2.663354986625907639e-01
2.995796713794421362e-01
3.030187237294612035e-01
2.858234619793657005e-01
2.797095911348873032e-01
2.923194497516239942e-01
2.846771111960260114e-01
2.934658005349636833e-01
3.121895299961788273e-01
2.797095911348873032e-01
2.877340466182651824e-01
2.949942682460833243e-01
2.781811234237676622e-01
2.938479174627435797e-01
2.755063049293083877e-01
2.755063049293083877e-01
2.755063049293083877e-01
2.953763851738632207e-01
2.705387848681696794e-01
2.812380588460068886e-01
2.613679786014520556e-01
2.628964463125716411e-01
2.644249140236912266e-01
2.693924340848299348e-01
2.999617883072220326e-01
2.663354986625907639e-01
2.632785632403515375e-01
2.663354986625907639e-01
2.735957202904088503e-01
2.678639663737103493e-01
2.766526557126480768e-01
3.030187237294612035e-01
2.907909820405044088e-01
3.060756591517004299e-01
2.831486434849063705e-01
2.648070309514711229e-01
2.999617883072220326e-01
2.785632403515475586e-01
2.812380588460068886e-01
2.678639663737103493e-01
2.659533817348108675e-01
2.644249140236912266e-01
2.938479174627435797e-01
2.846771111960260114e-01
2.690103171570500384e-01
2.735957202904088503e-01
2.907909820405044088e-01
2.739778372181887467e-01
2.980512036683224952e-01
2.907909820405044088e-01
2.949942682460833243e-01
2.969048528849828061e-01
3.014902560183416180e-01
2.617500955292319520e-01
2.865876958349254933e-01
2.907909820405044088e-01
2.953763851738632207e-01
2.739778372181887467e-01
2.831486434849063705e-01
2.965227359572029098e-01
2.644249140236912266e-01
2.598395108903324147e-01
2.770347726404279731e-01
3.026366068016813071e-01
2.770347726404279731e-01
2.984333205961023916e-01
2.663354986625907639e-01
2.632785632403515375e-01
3.026366068016813071e-01
2.644249140236912266e-01
2.854413450515858042e-01
2.892625143293847678e-01
2.693924340848299348e-01
2.812380588460068886e-01
2.613679786014520556e-01
2.781811234237676622e-01
2.999617883072220326e-01
2.586931601069927256e-01
2.938479174627435797e-01
2.858234619793657005e-01
2.659533817348108675e-01
2.628964463125716411e-01
2.907909820405044088e-01
2.919373328238440979e-01
2.858234619793657005e-01
2.999617883072220326e-01
2.927015666794038906e-01
2.812380588460068886e-01
2.663354986625907639e-01
2.678639663737103493e-01
2.965227359572029098e-01
2.617500955292319520e-01
2.907909820405044088e-01
2.949942682460833243e-01
2.888803974016048715e-01
2.628964463125716411e-01
2.766526557126480768e-01
2.613679786014520556e-01
2.831486434849063705e-01
2.663354986625907639e-01
2.846771111960260114e-01
2.724493695070691612e-01
2.586931601069927256e-01
2.949942682460833243e-01
2.865876958349254933e-01
2.659533817348108675e-01
2.858234619793657005e-01
2.674818494459304530e-01
2.984333205961023916e-01
2.904088651127245124e-01
2.648070309514711229e-01
2.888803974016048715e-01
2.567825754680932437e-01
2.800917080626671996e-01
2.892625143293847678e-01
2.628964463125716411e-01
2.812380588460068886e-01
2.907909820405044088e-01
2.751241880015284913e-01
2.777990064959877659e-01
2.800917080626671996e-01
2.923194497516239942e-01
2.556362246847535546e-01
2.571646923958731401e-01
2.862055789071455969e-01
2.812380588460068886e-01
2.808559419182269923e-01
2.953763851738632207e-01
2.674818494459304530e-01
2.969048528849828061e-01
2.949942682460833243e-01
2.877340466182651824e-01
2.632785632403515375e-01
2.751241880015284913e-01
2.674818494459304530e-01
2.907909820405044088e-01
2.674818494459304530e-01
2.495223538402751295e-01
2.724493695070691612e-01
2.552541077569736583e-01
2.602216278181123665e-01
2.663354986625907639e-01
2.602216278181123665e-01
2.781811234237676622e-01
2.583110431792128292e-01
2.800917080626671996e-01
2.923194497516239942e-01
2.892625143293847678e-01
2.969048528849828061e-01
2.709209017959495758e-01
2.755063049293083877e-01
2.816201757737867850e-01
2.541077569736339137e-01
2.877340466182651824e-01
2.720672525792892649e-01
2.583110431792128292e-01
2.632785632403515375e-01
2.862055789071455969e-01
2.521971723347344319e-01
2.693924340848299348e-01
2.816201757737867850e-01
2.755063049293083877e-01
2.449369507069163177e-01
2.632785632403515375e-01
2.862055789071455969e-01
2.632785632403515375e-01
2.862055789071455969e-01
2.628964463125716411e-01
2.659533817348108675e-01
2.632785632403515375e-01
2.797095911348873032e-01
2.831486434849063705e-01
2.476117692013756200e-01
2.449369507069163177e-01
2.521971723347344319e-01
2.644249140236912266e-01
2.632785632403515375e-01
2.384409629346579962e-01
2.537256400458540173e-01
2.690103171570500384e-01
2.434084829957967044e-01
2.705387848681696794e-01
2.628964463125716411e-01
2.342376767290791084e-01
2.648070309514711229e-01
2.369124952235384107e-01
2.495223538402751295e-01
2.720672525792892649e-01
2.693924340848299348e-01
2.445548337791364213e-01
2.376767290790982035e-01
2.617500955292319520e-01
2.296522735957202965e-01
2.617500955292319520e-01
2.521971723347344319e-01
2.327092090179594952e-01
2.430263660680168081e-01
2.407336645013374021e-01
2.644249140236912266e-01
2.541077569736339137e-01
2.296522735957202965e-01
2.372946121513183071e-01
2.521971723347344319e-01
2.567825754680932437e-01
2.476117692013756200e-01
2.541077569736339137e-01
2.705387848681696794e-01
2.644249140236912266e-01
2.372946121513183071e-01
2.770347726404279731e-01
2.399694306457776094e-01
2.812380588460068886e-01
2.678639663737103493e-01
2.705387848681696794e-01
2.831486434849063705e-01
2.541077569736339137e-01
2.690103171570500384e-01
2.510508215513947428e-01
2.858234619793657005e-01
2.816201757737867850e-01
2.831486434849063705e-01
2.858234619793657005e-01
2.735957202904088503e-01
2.904088651127245124e-01
2.877340466182651824e-01
3.060756591517004299e-01
2.934658005349636833e-01
3.366450133740924722e-01
3.305311425296140748e-01
3.473442873519296814e-01
3.183034008406572246e-01
3.397019487963316986e-01
3.572793274742070979e-01
3.473442873519296814e-01
3.782957585021016200e-01
3.714176538020634299e-01
3.916698509743981593e-01
4.100114635078334069e-01
3.993121895299961976e-01
3.916698509743981593e-01
3.947267863966373858e-01
4.081008788689338695e-01
4.176538020634313897e-01
4.635078333970195086e-01
4.528085594191822438e-01
4.547191440580817812e-01
4.768819258693159924e-01
5.047764615972487601e-01
4.971341230416507218e-01
5.227359572029041113e-01
4.986625907527703627e-01
5.200611387084448367e-01
5.460450897974780116e-01
5.277034772640427640e-01
5.429881543752388406e-01
5.491020252197171825e-01
5.643867023309132591e-01
5.995414596866641688e-01
6.090943828811616889e-01
6.178830722200993053e-01
6.129155521589606526e-01
6.350783339701948638e-01
6.560947649980893859e-01
6.545662972869698004e-01
6.541841803591899041e-01
6.805502483760030863e-01
6.985097439816584375e-01
6.713794421092854625e-01
7.157050057317538849e-01
7.034772640427970902e-01
7.004203286205579193e-01
7.359572029040886143e-01
7.539166985097439655e-01
7.290790982040504797e-01
7.646159724875811747e-01
7.523882307986243800e-01
7.676729079098204567e-01
7.905999235766144606e-01
7.905999235766144606e-01
7.753152464654183840e-01
7.886893389377149788e-01
8.284294994268246448e-01
8.364539549102024685e-01
8.440962934658005068e-01
8.150554069545280500e-01
8.364539549102024685e-01
8.716087122659533781e-01
8.639663737103553398e-01
8.712265953381734818e-01
8.884218570882690402e-01
8.731371799770729636e-01
8.930072602216277966e-01
8.823079862437905874e-01
9.048528849828046949e-01
8.972105464272067676e-01
9.098204050439434587e-01
8.842185708826900692e-01
8.926251432938479002e-01
9.052350019105845913e-01
9.109667558272831478e-01
9.231944975162399425e-01
9.247229652273595280e-01
9.021780664883454204e-01
9.231944975162399425e-01
9.281620175773787063e-01
9.201375620940007716e-01
9.216660298051203570e-01
9.434466946885746719e-01
9.572029040886511631e-01
9.526175009552922957e-01
9.526175009552922957e-01
9.476499808941536429e-01
9.541459686664118811e-01
9.430645777607947755e-01
9.541459686664118811e-01
9.251050821551394243e-01
9.614061902942300231e-01
9.526175009552922957e-01
9.358043561329767446e-01
9.403897592663355010e-01
9.598777225831104376e-01
9.296904852884982917e-01
9.617883072220099194e-01
9.281620175773787063e-01
9.541459686664118811e-01
9.587313717997707485e-01
9.465036301108139538e-01
9.220481467329002534e-01
9.430645777607947755e-01
9.522353840275123993e-01
9.522353840275123993e-01
9.262514329384792244e-01
9.098204050439434587e-01
9.098204050439434587e-01
9.113488727550630442e-01
9.021780664883454204e-01
9.247229652273595280e-01
9.048528849828046949e-01
9.098204050439434587e-01
8.972105464272067676e-01
9.312189529996178772e-01
8.960641956438670785e-01
8.899503247993886257e-01
8.991211310661062495e-01
9.037065341994650058e-01
8.777225831104318310e-01
9.098204050439434587e-01
9.037065341994650058e-01
8.773404661826519346e-01
9.048528849828046949e-01
8.670233091325946218e-01
8.777225831104318310e-01
8.853649216660297583e-01
8.563240351547573015e-01
8.746656476881925490e-01
8.819258693160106910e-01
8.425678257546809213e-01
8.670233091325946218e-01
8.528849828047382342e-01
8.670233091325946218e-01
8.318685517768437121e-01
8.589988536492166871e-01
8.551776843714176124e-01
8.364539549102024685e-01
8.589988536492166871e-01
8.211692777990065029e-01
8.395108903324417504e-01
8.532670997325181306e-01
8.425678257546809213e-01
8.165838746656476355e-01
8.028276652655712553e-01
8.058846006878104262e-01
8.043561329766908408e-01
8.012991975544516698e-01
8.284294994268246448e-01
7.921283912877340461e-01
7.932747420710737352e-01
8.100878868933893973e-01
8.039740160489109444e-01
7.783721818876576659e-01
8.150554069545280500e-01
8.074130683989301227e-01
7.871608712265953933e-01
8.043561329766908408e-01
7.997707298433320844e-01
7.841039358043561114e-01
7.951853267099732170e-01
7.951853267099732170e-01
7.982422621322124989e-01
7.753152464654183840e-01
7.661444401987007602e-01
7.585021016431028329e-01
7.627053878486816929e-01
7.569736339319831364e-01
7.523882307986243800e-01
7.542988154375238619e-01
7.646159724875811747e-01
7.783721818876576659e-01
7.493312953763852091e-01
7.554451662208635510e-01
7.493312953763852091e-01
7.581199847153229365e-01
7.722583110431792131e-01
7.447458922430263417e-01
7.646159724875811747e-01
7.523882307986243800e-01
7.478028276652656237e-01
7.386320213985479999e-01
7.718761941153993167e-01
7.692013756209400421e-01
7.493312953763852091e-01
7.554451662208635510e-01
7.279327474207107906e-01
7.432174245319067563e-01
7.569736339319831364e-01
7.630875047764615893e-01
7.340466182651891325e-01
7.187619411539931669e-01
7.290790982040504797e-01
7.428353076041268599e-01
7.627053878486816929e-01
7.535345815819640691e-01
7.340466182651891325e-01
7.508597630875047946e-01
7.325181505540695470e-01
7.264042797095910942e-01
7.554451662208635510e-01
7.275506304929307833e-01
7.248758119984715087e-01
7.351929690485288216e-01
7.504776461597248982e-01
7.508597630875047946e-01
7.168513565150935740e-01
7.462743599541459272e-01
7.294612151318303761e-01
7.126480703095147140e-01
7.080626671761559576e-01
7.294612151318303761e-01
7.187619411539931669e-01
7.080626671761559576e-01
7.065341994650362611e-01
7.218188765762323378e-01
7.065341994650362611e-01
7.137944210928544031e-01
7.199082919373328560e-01
7.340466182651891325e-01
7.401604891096675853e-01
7.019487963316775048e-01
7.252579289262514051e-01
7.218188765762323378e-01
6.969812762705387410e-01
6.912495223538402955e-01
6.927779900649598810e-01
6.897210546427207101e-01
7.015666794038976084e-01
6.943064577760794664e-01
7.168513565150935740e-01
7.065341994650362611e-01
7.019487963316775048e-01
7.019487963316775048e-01
7.095911348872755431e-01
7.080626671761559576e-01
6.759648452426442189e-01
6.683225066870462916e-01
6.759648452426442189e-01
6.786396637371036045e-01
6.709973251815055661e-01
6.912495223538402955e-01
6.698509743981658771e-01
6.683225066870462916e-01
6.622086358425678387e-01
6.698509743981658771e-01
6.667940389759265951e-01
6.557126480703094895e-01
6.557126480703094895e-01
6.667940389759265951e-01
6.526557126480703186e-01
6.301108139090562110e-01
6.453954910202521766e-01
6.228505922812380691e-01
6.331677493312953819e-01
6.484524264424913476e-01
6.438670233091325912e-01
6.228505922812380691e-01
6.178830722200993053e-01
6.469239587313717621e-01
6.132976690867405489e-01
6.194115399312190018e-01
6.056553305311425106e-01
5.976308750477645759e-01
6.270538784868169291e-01
6.052732136033626142e-01
5.953381734810851977e-01
6.236148261367978618e-01
5.823461979365686103e-01
6.132976690867405489e-01
5.949560565533053014e-01
6.022162781811234433e-01
5.873137179977072631e-01
6.041268628200229251e-01
5.792892625143294394e-01
5.857852502865876776e-01
5.735575085976308829e-01
5.659151700420328446e-01
5.903706534199465450e-01
5.613297669086740882e-01
5.781429117309896393e-01
5.705005731753917120e-01
5.598012991975545027e-01
5.598012991975545027e-01
5.907527703477264414e-01
5.491020252197171825e-01
5.876958349254871594e-01
5.838746656476881958e-01
5.552158960641956353e-01
5.838746656476881958e-01
5.502483760030569826e-01
5.445166220863584261e-01
5.766144440198700538e-01
5.491020252197171825e-01
5.491020252197171825e-01
5.368742835307603878e-01
5.750859763087504684e-01
5.536874283530760499e-01
5.475735575085975970e-01
5.598012991975545027e-01
5.720290408865112974e-01
5.364921666029804914e-01
5.471914405808177007e-01
5.705005731753917120e-01
5.689721054642720155e-01
5.578907145586549099e-01
5.292319449751623495e-01
5.384027512418799732e-01
5.334352311807413205e-01
5.475735575085975970e-01
5.231180741306840076e-01
5.471914405808177007e-01
5.540695452808559462e-01
5.353458158196408023e-01
5.563622468475353244e-01
5.536874283530760499e-01
5.242644249140236967e-01
5.533053114252961535e-01
5.231180741306840076e-01
5.628582346197936737e-01
5.277034772640427640e-01
5.624761176920137773e-01
5.414596866641192552e-01
5.441345051585785297e-01
5.288498280473824531e-01
5.399312189529996697e-01
5.445166220863584261e-01
5.257928926251432822e-01
5.322888803974016314e-01
5.368742835307603878e-01
5.494841421474970788e-01
5.215896064195644222e-01
5.261750095529231785e-01
5.292319449751623495e-01
5.441345051585785297e-01
5.506304929308368790e-01
5.257928926251432822e-01
5.242644249140236967e-01
5.242644249140236967e-01
5.353458158196408023e-01
5.384027512418799732e-01
5.261750095529231785e-01
5.429881543752388406e-01
5.487199082919372861e-01
5.521589606419564644e-01
5.410775697363393588e-01
5.384027512418799732e-01
5.548337791364157390e-01
5.212074894917845258e-01
5.212074894917845258e-01
5.384027512418799732e-01
5.380206343141000769e-01
5.257928926251432822e-01
5.460450897974780116e-01
5.338173481085212169e-01
5.307604126862820459e-01
5.246465418418035931e-01
5.368742835307603878e-01
5.487199082919372861e-01
5.475735575085975970e-01
5.471914405808177007e-01
5.399312189529996697e-01
5.261750095529231785e-01
5.196790217806648293e-01
5.399312189529996697e-01
5.124188001528467984e-01
5.292319449751623495e-01
5.384027512418799732e-01
5.170042032862055548e-01
5.426060374474589443e-01
5.093618647306075164e-01
5.120366832250669020e-01
5.288498280473824531e-01
5.108903324417272129e-01
5.078333970194879310e-01
4.967520061138708254e-01
5.246465418418035931e-01
5.349636988918609060e-01
5.017195261750095892e-01
5.139472678639663838e-01
5.322888803974016314e-01
4.925487199082919099e-01
5.070691631639281383e-01
5.043943446694688637e-01
5.185326709973251402e-01
5.120366832250669020e-01
4.879633167749331535e-01
5.261750095529231785e-01
4.891096675582728426e-01
4.845242644249140307e-01
4.784103935804356333e-01
5.078333970194879310e-01
5.063049293083683455e-01
4.799388612915552188e-01
4.921666029805120135e-01
4.799388612915552188e-01
4.768819258693159924e-01
4.772640427970958887e-01
4.696217042414979059e-01
5.059228123805884492e-01
4.875811998471532016e-01
4.677111196025983686e-01
4.650363011081390940e-01
4.986625907527703627e-01
4.971341230416507218e-01
4.665647688192586795e-01
4.638899503247994049e-01
4.864348490638135125e-01
4.635078333970195086e-01
4.875811998471532016e-01
4.573939625525410557e-01
4.405808177302254491e-01
4.757355750859763033e-01
4.665647688192586795e-01
4.573939625525410557e-01
4.451662208635842610e-01
4.348490638135269482e-01
4.619793656858998676e-01
4.314100114635078254e-01
4.237676729079098426e-01
4.615972487581199712e-01
4.283530760412686544e-01
4.203286205578907198e-01
4.497516239969430729e-01
4.436377531524646756e-01
4.103935804356133032e-01
4.084829957967138214e-01
4.023691249522353686e-01
4.081008788689338695e-01
4.176538020634313897e-01
4.298815437523882399e-01
3.962552541077569712e-01
3.916698509743981593e-01
4.054260603744745950e-01
3.962552541077569712e-01
4.161253343523118042e-01
4.210928544134505125e-01
3.882307986243790365e-01
3.870844478410393474e-01
3.947267863966373858e-01
3.790599923576614683e-01
4.142147497134123224e-01
4.084829957967138214e-01
3.993121895299961976e-01
3.717997707298433263e-01
3.641574321742453435e-01
3.702713030187237409e-01
3.886129155521589329e-01
3.912877340466182630e-01
3.916698509743981593e-01
3.591899121131066352e-01
3.840275124188001765e-01
3.504012227741689078e-01
3.458158196408100959e-01
3.500191058463890115e-01
3.488727550630492669e-01
3.484906381352693705e-01
3.809705769965609501e-01
3.504012227741689078e-01
3.775315246465418273e-01
3.397019487963316986e-01
3.580435613297668906e-01
3.423767672907909732e-01
3.561329766908674088e-01
3.335880779518532457e-01
3.595720290408865316e-01
3.561329766908674088e-01
3.377913641574321613e-01
3.186855177684371210e-01
3.488727550630492669e-01
3.320596102407336603e-01
3.393198318685518022e-01
3.263278563240351593e-01
3.106610622850592418e-01
3.225066870462361401e-01
3.492548719908292187e-01
3.301490256018341785e-01
3.194497516239969692e-01
3.030187237294612035e-01
3.102789453572793454e-01
3.087504776461597045e-01
3.381734810852120576e-01
3.335880779518532457e-01
3.316774933129537639e-01
3.228888039740160365e-01
3.290026748184944339e-01
3.213603362628964510e-01
3.137179977072984127e-01
3.072220099350401190e-01
2.995796713794421362e-01
3.060756591517004299e-01
3.228888039740160365e-01
2.888803974016048715e-01
2.827665265571264741e-01
3.152464654184180537e-01
2.797095911348873032e-01
3.163928162017577428e-01
2.904088651127245124e-01
2.785632403515475586e-01
2.831486434849063705e-01
2.923194497516239942e-01
2.934658005349636833e-01
3.091325945739396008e-01
2.995796713794421362e-01
3.014902560183416180e-01
2.816201757737867850e-01
2.800917080626671996e-01
2.919373328238440979e-01
2.693924340848299348e-01
2.873519296904852860e-01
2.842949942682460596e-01
2.663354986625907639e-01
2.648070309514711229e-01
2.602216278181123665e-01
2.972869698127627025e-01
2.617500955292319520e-01
2.816201757737867850e-01
2.663354986625907639e-01
2.873519296904852860e-01
2.693924340848299348e-01
2.713030187237294721e-01
2.709209017959495758e-01
3.014902560183416180e-01
2.598395108903324147e-01
2.613679786014520556e-01
2.888803974016048715e-01
2.556362246847535546e-01
2.541077569736339137e-01
2.877340466182651824e-01
2.491402369124952332e-01
2.556362246847535546e-01
2.537256400458540173e-01
2.479938861291555163e-01
2.877340466182651824e-01
2.724493695070691612e-01
2.713030187237294721e-01
2.862055789071455969e-01
2.678639663737103493e-01
2.521971723347344319e-01
2.594573939625525183e-01
2.632785632403515375e-01
2.877340466182651824e-01
2.495223538402751295e-01
2.770347726404279731e-01
2.571646923958731401e-01
2.709209017959495758e-01
2.541077569736339137e-01
2.445548337791364213e-01
2.632785632403515375e-01
2.556362246847535546e-01
2.372946121513183071e-01
2.827665265571264741e-01
2.724493695070691612e-01
2.506687046236148464e-01
2.541077569736339137e-01
2.705387848681696794e-01
2.690103171570500384e-01
2.521971723347344319e-01
2.755063049293083877e-01
2.755063049293083877e-01
2.770347726404279731e-01
2.567825754680932437e-01
2.800917080626671996e-01
2.770347726404279731e-01
2.403515475735575058e-01
2.434084829957967044e-01
2.430263660680168081e-01
2.426442491402369117e-01
2.659533817348108675e-01
2.323270920901795988e-01
2.342376767290791084e-01
2.327092090179594952e-01
2.369124952235384107e-01
2.399694306457776094e-01
2.495223538402751295e-01
2.674818494459304530e-01
2.602216278181123665e-01
2.281238058846006833e-01
2.449369507069163177e-01
2.709209017959495758e-01
2.602216278181123665e-01
2.311807413068398820e-01
2.739778372181887467e-01
2.357661444401986939e-01
2.479938861291555163e-01
2.392051967902178167e-01
2.464654184180359309e-01
2.617500955292319520e-01
2.392051967902178167e-01
2.342376767290791084e-01
2.265953381734810979e-01
2.525792892625143282e-01
2.678639663737103493e-01
2.292701566679404002e-01
2.617500955292319520e-01
2.307986243790599856e-01
2.296522735957202965e-01
2.449369507069163177e-01
2.388230798624378926e-01
2.575468093236530365e-01
2.449369507069163177e-01
2.479938861291555163e-01
2.323270920901795988e-01
2.617500955292319520e-01
2.296522735957202965e-01
2.617500955292319520e-01
2.338555598012991843e-01
2.323270920901795988e-01
2.460833014902560067e-01
2.235384027512418714e-01
2.369124952235384107e-01
2.525792892625143282e-01
2.445548337791364213e-01
2.277416889568207869e-01
2.204814673290026728e-01
2.598395108903324147e-01
2.525792892625143282e-01
2.407336645013374021e-01
2.296522735957202965e-01
2.296522735957202965e-01
2.403515475735575058e-01
2.632785632403515375e-01
2.537256400458540173e-01
2.552541077569736583e-01
2.628964463125716411e-01
2.338555598012991843e-01
2.521971723347344319e-01
2.521971723347344319e-01
2.583110431792128292e-01
2.250668704623614846e-01
2.556362246847535546e-01
2.464654184180359309e-01
2.189529996178830595e-01
2.311807413068398820e-01
2.265953381734810979e-01
2.384409629346579962e-01
2.235384027512418714e-01
2.327092090179594952e-01
2.476117692013756200e-01
2.430263660680168081e-01
2.617500955292319520e-01
2.285059228123805797e-01
2.495223538402751295e-01
2.659533817348108675e-01
2.262132212457011737e-01
2.556362246847535546e-01
2.220099350401222860e-01
2.193351165456629837e-01
2.567825754680932437e-01
2.583110431792128292e-01
2.449369507069163177e-01
2.262132212457011737e-01
2.372946121513183071e-01
2.296522735957202965e-01
2.479938861291555163e-01
2.296522735957202965e-01
2.189529996178830595e-01
2.644249140236912266e-01
2.510508215513947428e-01
2.571646923958731401e-01
2.541077569736339137e-01
2.262132212457011737e-01
2.250668704623614846e-01
2.495223538402751295e-01
2.453190676346962140e-01
2.541077569736339137e-01
2.552541077569736583e-01
2.449369507069163177e-01
2.445548337791364213e-01
2.170424149789835777e-01
2.468475353458158272e-01
2.372946121513183071e-01
2.231562858234619751e-01
2.158960641956438609e-01
2.327092090179594952e-01
2.510508215513947428e-01
2.510508215513947428e-01
2.189529996178830595e-01
2.495223538402751295e-01
2.189529996178830595e-01
2.510508215513947428e-01
2.414978983568972226e-01
2.560183416125334510e-01
2.220099350401222860e-01
2.586931601069927256e-01
2.250668704623614846e-01
2.353840275124187975e-01
2.537256400458540173e-01
2.353840275124187975e-01
2.220099350401222860e-01
2.437905999235766008e-01
2.204814673290026728e-01
2.468475353458158272e-01
2.170424149789835777e-01
2.399694306457776094e-01
2.449369507069163177e-01
2.174245319067634741e-01
2.479938861291555163e-01
2.479938861291555163e-01
2.235384027512418714e-01
2.460833014902560067e-01
2.384409629346579962e-01
2.277416889568207869e-01
2.541077569736339137e-01
2.139854795567443513e-01
2.521971723347344319e-01
2.491402369124952332e-01
2.567825754680932437e-01
2.541077569736339137e-01
2.246847535345815883e-01
2.311807413068398820e-01
2.464654184180359309e-01
2.082537256400458503e-01
2.246847535345815883e-01
2.262132212457011737e-01
2.113106610622850490e-01
2.403515475735575058e-01
2.200993504012227764e-01
2.235384027512418714e-01
2.525792892625143282e-01
2.414978983568972226e-01
2.155139472678639645e-01
2.311807413068398820e-01
2.491402369124952332e-01
2.460833014902560067e-01
2.155139472678639645e-01
2.479938861291555163e-01
2.250668704623614846e-01
2.479938861291555163e-01
2.418800152846771190e-01
2.220099350401222860e-01
2.204814673290026728e-01
2.307986243790599856e-01
2.319449751623997025e-01
2.143675964845242754e-01
2.200993504012227764e-01
2.445548337791364213e-01
2.254489873901413810e-01
2.128391287734046622e-01
2.430263660680168081e-01
2.143675964845242754e-01
2.296522735957202965e-01
2.483760030569354127e-01
2.418800152846771190e-01
2.032862055789071420e-01
2.143675964845242754e-01
2.067252579289262648e-01
2.414978983568972226e-01
2.097821933511654635e-01
2.292701566679404002e-01
2.097821933511654635e-01
1.987008024455483302e-01
2.021398547955674529e-01
2.155139472678639645e-01
2.327092090179594952e-01
2.369124952235384107e-01
1.960259839510890278e-01
2.372946121513183071e-01
2.109285441345051526e-01
2.021398547955674529e-01
2.277416889568207869e-01
2.032862055789071420e-01
2.067252579289262648e-01
2.327092090179594952e-01
2.372946121513183071e-01
2.262132212457011737e-01
2.323270920901795988e-01
2.078716087122659539e-01
2.231562858234619751e-01
1.910584638899503196e-01
1.902942300343905269e-01
2.048146732900267553e-01
2.281238058846006833e-01
2.006113870844478397e-01
1.956438670233091315e-01
1.975544516622086411e-01
2.189529996178830595e-01
1.883836453954910173e-01
2.342376767290791084e-01
2.311807413068398820e-01
2.174245319067634741e-01
1.944975162399694424e-01
2.158960641956438609e-01
2.002292701566679434e-01
1.975544516622086411e-01
2.143675964845242754e-01
2.036683225066870384e-01
2.051967902178066516e-01
2.051967902178066516e-01
2.372946121513183071e-01
2.067252579289262648e-01
2.342376767290791084e-01
2.357661444401986939e-01
2.143675964845242754e-01
2.082537256400458503e-01
2.124570118456247658e-01
2.327092090179594952e-01
2.491402369124952332e-01
2.353840275124187975e-01
2.541077569736339137e-01
2.659533817348108675e-01
2.437905999235766008e-01
2.495223538402751295e-01
2.602216278181123665e-01
2.560183416125334510e-01
2.892625143293847678e-01
2.735957202904088503e-01
2.965227359572029098e-01
2.693924340848299348e-01
2.934658005349636833e-01
2.911730989682843052e-01
3.011081390905617217e-01
3.351165456629728867e-01
3.045471914405808445e-01
3.183034008406572246e-01
3.595720290408865316e-01
3.565150936186473052e-01
3.824990447076805355e-01
3.794421092854413646e-01
3.668322506687046181e-01
3.851738632021398656e-01
3.947267863966373858e-01
3.943446694688574894e-01
4.390523500191058637e-01
4.161253343523118042e-01
4.493695070691631765e-01
4.333205961024073627e-01
4.753534581581964069e-01
4.524264424914023475e-01
4.726786396637370768e-01
4.864348490638135125e-01
4.860527321360336162e-01
5.170042032862055548e-01
5.170042032862055548e-01
5.628582346197936737e-01
5.491020252197171825e-01
5.563622468475353244e-01
5.964845242644248868e-01
5.903706534199465450e-01
5.980129919755444723e-01
6.194115399312190018e-01
6.423385555980130057e-01
6.301108139090562110e-01
6.587695834925487715e-01
6.744363775315246334e-01
6.786396637371036045e-01
6.637371035536874242e-01
7.034772640427970902e-01
6.954528085594191555e-01
6.912495223538402955e-01
7.344287351929690288e-01
7.126480703095147140e-01
7.264042797095910942e-01
7.325181505540695470e-01
7.447458922430263417e-01
7.814291173098968368e-01
7.963316774933129061e-01
7.909820405043943570e-01
7.890714558654948751e-01
7.982422621322124989e-01
8.032097821933511517e-01
8.440962934658005068e-01
8.192586931601070210e-01
8.253725640045853629e-01
8.307222009935040230e-01
8.624379059992357544e-01
8.502101643102789597e-01
8.838364539549101728e-01
8.624379059992357544e-01
8.975926633549866640e-01
9.002674818494459386e-01
8.788689338937715201e-01
8.838364539549101728e-01
9.205196790217806679e-01
8.975926633549866640e-01
9.354222392051967372e-01
9.155521589606419042e-01
9.144058081773022151e-01
9.296904852884982917e-01
9.476499808941536429e-01
9.568207871608712667e-01
9.296904852884982917e-01
9.602598395108903340e-01
9.724875811998471287e-01
9.510890332441727102e-01
9.526175009552922957e-01
9.461215131830340574e-01
9.694306457776079577e-01
9.782193351165456852e-01
9.633167749331295049e-01
9.663737103553687868e-01
9.724875811998471287e-01
9.675200611387084759e-01
9.526175009552922957e-01
9.908291937332823762e-01
9.541459686664118811e-01
9.828047382499044415e-01
1.000000000000000000e+00
9.648452426442490903e-01
9.950324799388612362e-01
9.893007260221627908e-01
9.786014520443255815e-01
9.954145968666412436e-01
9.923576614444019617e-01
9.644631257164691940e-01
9.663737103553687868e-01
9.797478028276652706e-01
9.633167749331295049e-01
9.831868551776843379e-01
9.495605655330531247e-01
9.522353840275123993e-01
9.541459686664118811e-01
9.568207871608712667e-01
9.465036301108139538e-01
9.679021780664883723e-01
9.495605655330531247e-01
9.751623996943064032e-01
9.679021780664883723e-01
9.373328238440963300e-01
9.663737103553687868e-01
9.461215131830340574e-01
9.281620175773787063e-01
9.231944975162399425e-01
9.541459686664118811e-01
9.251050821551394243e-01
9.159342758884219116e-01
9.170806266717616007e-01
9.293083683607183954e-01
9.388612915552159155e-01
9.251050821551394243e-01
9.251050821551394243e-01
8.960641956438670785e-01
8.899503247993886257e-01
9.014138326327856277e-01
9.205196790217806679e-01
8.910966755827283148e-01
9.067634696217042878e-01
8.930072602216277966e-01
9.017959495605655240e-01
8.926251432938479002e-01
8.670233091325946218e-01
8.834543370271302765e-01
8.716087122659533781e-01
8.960641956438670785e-01
8.609094382881161689e-01
8.941536110049674857e-01
8.517386320213985451e-01
8.486816965991593742e-01
8.746656476881925490e-01
8.685517768437142072e-01
8.609094382881161689e-01
8.410393580435613359e-01
8.482995796713794778e-01
8.360718379824225721e-01
8.349254871990828830e-01
8.528849828047382342e-01
8.547955674436377160e-01
8.333970194879632976e-01
8.440962934658005068e-01
8.318685517768437121e-01
8.242262132212456738e-01
8.211692777990065029e-01
8.146732900267481536e-01
8.456247611769200923e-01
8.242262132212456738e-01
8.104700038211692936e-01
8.303400840657241266e-01
8.376003056935422686e-01
8.150554069545280500e-01
8.207871608712266065e-01
8.074130683989301227e-01
8.089415361100497082e-01
8.211692777990065029e-01
8.303400840657241266e-01
8.162017577378677391e-01
7.936568589988536315e-01
7.902178066488345642e-01
8.177302254489874356e-01
8.242262132212456738e-01
7.967137944210928024e-01
8.219335116545662956e-01
7.921283912877340461e-01
7.886893389377149788e-01
8.177302254489874356e-01
7.978601452044326026e-01
7.890714558654948751e-01
7.921283912877340461e-01
8.162017577378677391e-01
7.703477264042797312e-01
7.982422621322124989e-01
7.707298433320596276e-01
8.012991975544516698e-01
7.978601452044326026e-01
7.886893389377149788e-01
7.856324035154756968e-01
7.692013756209400421e-01
7.630875047764615893e-01
7.688192586931601458e-01
7.646159724875811747e-01
8.039740160489109444e-01
7.795185326709973550e-01
7.741688956820786949e-01
7.661444401987007602e-01
7.890714558654948751e-01
7.875429881543752897e-01
7.569736339319831364e-01
7.646159724875811747e-01
7.550630492930836546e-01
7.661444401987007602e-01
7.542988154375238619e-01
7.692013756209400421e-01
7.890714558654948751e-01
7.611769201375621074e-01
7.871608712265953933e-01
7.554451662208635510e-01
7.875429881543752897e-01
7.539166985097439655e-01
7.829575850210164223e-01
7.627053878486816929e-01
7.829575850210164223e-01
7.523882307986243800e-01
7.707298433320596276e-01
7.508597630875047946e-01
7.905999235766144606e-01
7.493312953763852091e-01
7.703477264042797312e-01
7.661444401987007602e-01
7.688192586931601458e-01
7.642338555598012784e-01
7.615590370653420038e-01
7.458922430263660308e-01
7.569736339319831364e-01
7.523882307986243800e-01
7.688192586931601458e-01
7.432174245319067563e-01
7.325181505540695470e-01
7.309896828429499616e-01
7.294612151318303761e-01
7.478028276652656237e-01
7.432174245319067563e-01
7.294612151318303761e-01
7.294612151318303761e-01
7.260221627818111978e-01
7.539166985097439655e-01
7.172334734428734704e-01
7.325181505540695470e-01
7.065341994650362611e-01
7.141765380206342995e-01
7.160871226595337813e-01
7.034772640427970902e-01
7.290790982040504797e-01
7.050057317539166757e-01
7.019487963316775048e-01
7.137944210928544031e-01
6.958349254871990519e-01
7.187619411539931669e-01
6.897210546427207101e-01
7.157050057317538849e-01
7.034772640427970902e-01
7.065341994650362611e-01
6.790217806648835008e-01
6.958349254871990519e-01
6.878104700038211172e-01
6.717615590370653589e-01
6.774933129537638044e-01
6.744363775315246334e-01
6.637371035536874242e-01
6.820787160871226718e-01
6.748184944593045298e-01
6.790217806648835008e-01
6.469239587313717621e-01
6.316392816201757965e-01
6.637371035536874242e-01
6.637371035536874242e-01
6.576232327092089713e-01
6.503630110813909404e-01
6.388995032479939384e-01
6.224684753534581727e-01
6.530378295758502150e-01
6.148261367978601344e-01
6.473060756591516585e-01
6.362246847535345529e-01
6.255254107756973436e-01
6.087122659533816815e-01
6.220863584256782763e-01
6.022162781811234433e-01
6.282002292701566182e-01
6.148261367978601344e-01
5.918991211310661305e-01
5.964845242644248868e-01
5.934275888421857159e-01
6.102407336645013780e-01
5.903706534199465450e-01
6.132976690867405489e-01
6.010699273977837542e-01
5.861673672143675740e-01
6.075659151700419924e-01
5.857852502865876776e-01
5.808177302254490249e-01
5.735575085976308829e-01
5.750859763087504684e-01
5.888421857088268485e-01
5.854031333588077812e-01
6.025983951089033397e-01
5.735575085976308829e-01
5.884600687810469521e-01
5.567443637753152208e-01
5.712648070309515047e-01
5.578907145586549099e-01
5.903706534199465450e-01
5.884600687810469521e-01
5.563622468475353244e-01
5.827283148643485067e-01
5.552158960641956353e-01
5.766144440198700538e-01
5.735575085976308829e-01
5.842567825754680921e-01
5.705005731753917120e-01
5.655330531142529482e-01
5.567443637753152208e-01
5.552158960641956353e-01
5.811998471532289212e-01
5.777607948032097429e-01
5.735575085976308829e-01
5.609476499808941918e-01
5.689721054642720155e-01
5.659151700420328446e-01
5.548337791364157390e-01
5.567443637753152208e-01
5.395491020252196623e-01
5.598012991975545027e-01
5.582728314864348063e-01
5.750859763087504684e-01
5.750859763087504684e-01
5.655330531142529482e-01
5.689721054642720155e-01
5.628582346197936737e-01
5.831104317921284030e-01
5.517768437141765681e-01
5.674436377531524300e-01
5.598012991975545027e-01
5.548337791364157390e-01
5.762323270920901574e-01
5.796713794421093358e-01
5.395491020252196623e-01
5.460450897974780116e-01
5.674436377531524300e-01
5.720290408865112974e-01
5.410775697363393588e-01
5.567443637753152208e-01
5.380206343141000769e-01
5.720290408865112974e-01
5.777607948032097429e-01
5.624761176920137773e-01
5.731753916698509865e-01
5.731753916698509865e-01
5.521589606419564644e-01
5.628582346197936737e-01
5.460450897974780116e-01
5.429881543752388406e-01
5.426060374474589443e-01
5.429881543752388406e-01
5.731753916698509865e-01
5.777607948032097429e-01
5.643867023309132591e-01
5.594191822697746064e-01
5.536874283530760499e-01
5.445166220863584261e-01
5.426060374474589443e-01
5.670615208253725337e-01
5.429881543752388406e-01
5.384027512418799732e-01
5.720290408865112974e-01
5.640045854031333628e-01
5.613297669086740882e-01
5.731753916698509865e-01
5.525410775697363608e-01
5.334352311807413205e-01
5.399312189529996697e-01
5.399312189529996697e-01
5.429881543752388406e-01
5.720290408865112974e-01
5.785250286587695356e-01
5.640045854031333628e-01
5.322888803974016314e-01
5.613297669086740882e-01
5.567443637753152208e-01
5.273213603362628676e-01
5.288498280473824531e-01
5.414596866641192552e-01
5.445166220863584261e-01
5.567443637753152208e-01
5.349636988918609060e-01
5.292319449751623495e-01
5.521589606419564644e-01
5.277034772640427640e-01
5.460450897974780116e-01
5.322888803974016314e-01
5.521589606419564644e-01
5.487199082919372861e-01
5.368742835307603878e-01
5.471914405808177007e-01
5.410775697363393588e-01
5.089797478028276201e-01
5.292319449751623495e-01
5.017195261750095892e-01
5.353458158196408023e-01
5.124188001528467984e-01
5.261750095529231785e-01
5.105082155139473166e-01
5.219717233473443185e-01
5.277034772640427640e-01
5.124188001528467984e-01
5.215896064195644222e-01
4.998089415361100518e-01
5.170042032862055548e-01
5.124188001528467984e-01
4.860527321360336162e-01
4.864348490638135125e-01
5.124188001528467984e-01
5.108903324417272129e-01
5.017195261750095892e-01
4.768819258693159924e-01
5.032479938861291746e-01
5.063049293083683455e-01
4.814673290026748043e-01
4.921666029805120135e-01
4.910202521971723244e-01
4.894917844860527389e-01
4.650363011081390940e-01
4.998089415361100518e-01
4.665647688192586795e-01
4.910202521971723244e-01
4.680932365303783205e-01
4.604508979747802822e-01
4.925487199082919099e-01
4.864348490638135125e-01
4.761176920137561996e-01
4.497516239969430729e-01
4.894917844860527389e-01
4.738249904470768215e-01
4.451662208635842610e-01
4.803209782193351152e-01
4.539549102025219884e-01
4.375238823079862227e-01
4.283530760412686544e-01
4.283530760412686544e-01
4.692395873137180096e-01
4.325563622468475145e-01
4.294994268246083435e-01
4.359954145968666372e-01
4.218570882690103052e-01
4.508979747802827620e-01
4.218570882690103052e-01
4.314100114635078254e-01
4.401987008024455528e-01
4.447841039358043647e-01
4.333205961024073627e-01
4.157432174245319079e-01
4.432556362246847792e-01
4.405808177302254491e-01
4.344669468857470518e-01
4.466946885747038465e-01
4.417271685135651382e-01
4.065724111578142841e-01
4.100114635078334069e-01
3.977837218188765567e-01
4.310278945357279290e-01
4.069545280855941805e-01
3.970194879633167639e-01
3.870844478410393474e-01
4.218570882690103052e-01
3.916698509743981593e-01
4.038975926633550095e-01
4.161253343523118042e-01
4.203286205578907198e-01
3.763851738632021382e-01
4.084829957967138214e-01
3.916698509743981593e-01
3.794421092854413646e-01
3.775315246465418273e-01
4.019870080244554722e-01
3.867023309132594511e-01
3.748567061520825527e-01
3.744745892243026564e-01
3.779136415743217237e-01
3.794421092854413646e-01
3.672143675964845144e-01
3.840275124188001765e-01
3.928162017577378484e-01
3.683607183798242035e-01
3.641574321742453435e-01
3.748567061520825527e-01
3.611004967520061171e-01
3.611004967520061171e-01
3.698891860909438445e-01
3.763851738632021382e-01
3.611004967520061171e-01
3.546045089797478234e-01
3.519296904852884933e-01
3.790599923576614683e-01
3.882307986243790365e-01
3.821169277799006392e-01
3.851738632021398656e-01
3.515475735575085969e-01
3.653037829575850326e-01
3.473442873519296814e-01
3.477264042797095778e-01
3.763851738632021382e-01
3.748567061520825527e-01
3.714176538020634299e-01
3.504012227741689078e-01
3.397019487963316986e-01
3.733282384409629118e-01
3.393198318685518022e-01
3.530760412686281824e-01
3.622468475353458062e-01
3.366450133740924722e-01
3.377913641574321613e-01
3.412304165074512841e-01
3.316774933129537639e-01
3.423767672907909732e-01
3.565150936186473052e-01
3.293847917462743857e-01
3.626289644631257025e-01
3.427588842185708695e-01
3.668322506687046181e-01
3.393198318685518022e-01
3.637753152464653916e-01
3.580435613297668906e-01
3.183034008406572246e-01
3.290026748184944339e-01
3.259457393962552629e-01
3.347344287351929903e-01
3.534581581964080788e-01
3.439052350019105586e-01
3.427588842185708695e-01
3.523118074130683897e-01
3.316774933129537639e-01
3.332059610240733494e-01
3.397019487963316986e-01
3.530760412686281824e-01
3.335880779518532457e-01
3.194497516239969692e-01
3.412304165074512841e-01
3.179212839128773282e-01
3.259457393962552629e-01
3.377913641574321613e-01
3.366450133740924722e-01
3.458158196408100959e-01
3.091325945739396008e-01
3.106610622850592418e-01
3.301490256018341785e-01
3.427588842185708695e-01
3.102789453572793454e-01
3.484906381352693705e-01
3.427588842185708695e-01
3.412304165074512841e-01
3.408482995796713877e-01
3.121895299961788273e-01
3.148643484906381573e-01
3.106610622850592418e-01
3.209782193351165547e-01
3.076041268628200154e-01
3.072220099350401190e-01
3.091325945739396008e-01
3.320596102407336603e-01
2.999617883072220326e-01
3.286205578907145375e-01
3.049293083683607408e-01
3.034008406572410999e-01
2.999617883072220326e-01
3.045471914405808445e-01
3.244172716851356775e-01
3.183034008406572246e-01
3.030187237294612035e-01
3.397019487963316986e-01
3.442873519296905105e-01
3.072220099350401190e-01
3.427588842185708695e-01
3.163928162017577428e-01
3.393198318685518022e-01
3.072220099350401190e-01
3.072220099350401190e-01
2.991975544516621843e-01
3.060756591517004299e-01
3.030187237294612035e-01
3.255636224684753666e-01
3.106610622850592418e-01
3.014902560183416180e-01
3.076041268628200154e-01
3.320596102407336603e-01
3.244172716851356775e-01
3.045471914405808445e-01
2.999617883072220326e-01
3.037829575850209962e-01
3.316774933129537639e-01
3.076041268628200154e-01
3.072220099350401190e-01
2.969048528849828061e-01
3.316774933129537639e-01
2.969048528849828061e-01
3.240351547573557256e-01
3.259457393962552629e-01
2.980512036683224952e-01
3.049293083683607408e-01
3.194497516239969692e-01
2.907909820405044088e-01
2.953763851738632207e-01
3.152464654184180537e-01
3.091325945739396008e-01
2.980512036683224952e-01
3.198318685517768656e-01
3.171570500573175355e-01
3.148643484906381573e-01
3.209782193351165547e-01
3.305311425296140748e-01
2.965227359572029098e-01
3.060756591517004299e-01
3.060756591517004299e-01
3.014902560183416180e-01
3.014902560183416180e-01
3.198318685517768656e-01
3.167749331295376392e-01
3.056935422239205336e-01
3.198318685517768656e-01
3.198318685517768656e-01
2.965227359572029098e-01
2.862055789071455969e-01
3.091325945739396008e-01
2.999617883072220326e-01
3.209782193351165547e-01
3.179212839128773282e-01
2.953763851738632207e-01
3.076041268628200154e-01
2.995796713794421362e-01
3.076041268628200154e-01
3.244172716851356775e-01
3.137179977072984127e-01
3.179212839128773282e-01
2.965227359572029098e-01
2.888803974016048715e-01
3.209782193351165547e-01
3.102789453572793454e-01
2.888803974016048715e-01
2.831486434849063705e-01
2.892625143293847678e-01
3.133358807795185164e-01
3.209782193351165547e-01
3.171570500573175355e-01
2.858234619793657005e-01
3.198318685517768656e-01
2.816201757737867850e-01
2.892625143293847678e-01
3.011081390905617217e-01
3.011081390905617217e-01
3.225066870462361401e-01
2.919373328238440979e-01
3.102789453572793454e-01
2.862055789071455969e-01
3.213603362628964510e-01
2.873519296904852860e-01
2.957585021016431170e-01
3.148643484906381573e-01
2.919373328238440979e-01
2.995796713794421362e-01
3.148643484906381573e-01
2.949942682460833243e-01
2.984333205961023916e-01
3.076041268628200154e-01
2.812380588460068886e-01
3.137179977072984127e-01
2.827665265571264741e-01
3.091325945739396008e-01
3.072220099350401190e-01
3.045471914405808445e-01
3.118074130683989309e-01
2.919373328238440979e-01
3.018723729461215144e-01
2.927015666794038906e-01
2.919373328238440979e-01
3.026366068016813071e-01
3.045471914405808445e-01
2.831486434849063705e-01
3.167749331295376392e-01
2.984333205961023916e-01
2.827665265571264741e-01
3.121895299961788273e-01
2.831486434849063705e-01
3.026366068016813071e-01
2.766526557126480768e-01
3.183034008406572246e-01
3.091325945739396008e-01
2.816201757737867850e-01
3.102789453572793454e-01
2.842949942682460596e-01
3.137179977072984127e-01
3.014902560183416180e-01
3.011081390905617217e-01
3.152464654184180537e-01
2.953763851738632207e-01
2.827665265571264741e-01
3.076041268628200154e-01
2.846771111960260114e-01
3.106610622850592418e-01
2.820022927015666814e-01
2.831486434849063705e-01
2.873519296904852860e-01
2.938479174627435797e-01
2.877340466182651824e-01
2.720672525792892649e-01
2.949942682460833243e-01
2.709209017959495758e-01
2.735957202904088503e-01
2.812380588460068886e-01
2.739778372181887467e-01
3.045471914405808445e-01
3.060756591517004299e-01
2.949942682460833243e-01
2.751241880015284913e-01
2.785632403515475586e-01
2.831486434849063705e-01
2.735957202904088503e-01
3.087504776461597045e-01
2.724493695070691612e-01
2.938479174627435797e-01
2.953763851738632207e-01
2.770347726404279731e-01
2.965227359572029098e-01
2.690103171570500384e-01
2.755063049293083877e-01
2.648070309514711229e-01
2.755063049293083877e-01
2.927015666794038906e-01
2.892625143293847678e-01
2.781811234237676622e-01
3.041650745128008926e-01
3.141001146350783091e-01
2.907909820405044088e-01
2.785632403515475586e-01
3.091325945739396008e-01
3.087504776461597045e-01
2.980512036683224952e-01
2.873519296904852860e-01
2.812380588460068886e-01
2.648070309514711229e-01
2.617500955292319520e-01
2.923194497516239942e-01
3.014902560183416180e-01
2.724493695070691612e-01
2.586931601069927256e-01
2.949942682460833243e-01
2.927015666794038906e-01
2.842949942682460596e-01
2.659533817348108675e-01
2.789453572793274549e-01
2.862055789071455969e-01
2.797095911348873032e-01
2.816201757737867850e-01
2.648070309514711229e-01
2.724493695070691612e-01
2.816201757737867850e-01
2.586931601069927256e-01
2.827665265571264741e-01
2.797095911348873032e-01
2.644249140236912266e-01
2.781811234237676622e-01
2.720672525792892649e-01
2.709209017959495758e-01
2.938479174627435797e-01
2.865876958349254933e-01
2.586931601069927256e-01
2.693924340848299348e-01
2.846771111960260114e-01
2.842949942682460596e-01
2.541077569736339137e-01
2.938479174627435797e-01
2.800917080626671996e-01
2.904088651127245124e-01
2.586931601069927256e-01
2.491402369124952332e-01
2.709209017959495758e-01
2.919373328238440979e-01
2.877340466182651824e-01
2.816201757737867850e-01
2.521971723347344319e-01
2.674818494459304530e-01
2.862055789071455969e-01
2.816201757737867850e-01
2.785632403515475586e-01
2.827665265571264741e-01
2.862055789071455969e-01
2.785632403515475586e-01
2.904088651127245124e-01
2.969048528849828061e-01
2.816201757737867850e-01
2.602216278181123665e-01
2.774168895682078695e-01
2.877340466182651824e-01
3.014902560183416180e-01
2.678639663737103493e-01
2.709209017959495758e-01
2.766526557126480768e-01
3.163928162017577428e-01
2.797095911348873032e-01
3.091325945739396008e-01
3.152464654184180537e-01
2.980512036683224952e-01
3.121895299961788273e-01
2.927015666794038906e-01
3.427588842185708695e-01
3.320596102407336603e-01
3.274742071073748484e-01
3.381734810852120576e-01
3.274742071073748484e-01
3.622468475353458062e-01
3.397019487963316986e-01
3.473442873519296814e-01
3.576614444019869943e-01
4.027512418800152649e-01
4.130683989300725778e-01
3.897592663354986775e-01
3.974016048910966603e-01
4.004585403133358867e-01
4.386702330913259673e-01
4.451662208635842610e-01
4.451662208635842610e-01
4.722965227359571805e-01
4.722965227359571805e-01
4.879633167749331535e-01
4.558654948414214703e-01
4.726786396637370768e-01
5.135651509361864875e-01
5.166220863584256584e-01
5.273213603362628676e-01
5.506304929308368790e-01
5.338173481085212169e-01
5.456629728696981152e-01
5.475735575085975970e-01
5.827283148643485067e-01
5.792892625143294394e-01
6.102407336645013780e-01
6.331677493312953819e-01
5.995414596866641688e-01
6.343141001146350710e-01
6.515093618647306295e-01
6.717615590370653589e-01
6.480703095147114512e-01
6.698509743981658771e-01
6.897210546427207101e-01
6.801681314482231899e-01
7.034772640427970902e-01
7.279327474207107906e-01
7.458922430263660308e-01
7.229652273595720269e-01
7.416889568207871708e-01
7.539166985097439655e-01
7.611769201375621074e-01
7.630875047764615893e-01
