4.375238823079862227e-01
4.528085594191822438e-01
4.635078333970195086e-01
4.543370271303018848e-01
4.589224302636606967e-01
4.589224302636606967e-01
4.711501719526174914e-01
4.665647688192586795e-01
4.742071073748567178e-01
4.635078333970195086e-01
4.711501719526174914e-01
4.803209782193351152e-01
4.615972487581199712e-01
4.604508979747802822e-01
4.696217042414979059e-01
4.585403133358808003e-01
4.482231562858234875e-01
4.558654948414214703e-01
4.757355750859763033e-01
4.573939625525410557e-01
4.696217042414979059e-01
4.615972487581199712e-01
4.669468857470385759e-01
4.814673290026748043e-01
4.814673290026748043e-01
4.860527321360336162e-01
4.845242644249140307e-01
4.894917844860527389e-01
4.971341230416507218e-01
4.910202521971723244e-01
4.879633167749331535e-01
4.910202521971723244e-01
4.998089415361100518e-01
4.772640427970958887e-01
4.757355750859763033e-01
4.864348490638135125e-01
4.787925105082155297e-01
4.833779136415743416e-01
4.894917844860527389e-01
4.894917844860527389e-01
4.833779136415743416e-01
4.894917844860527389e-01
4.803209782193351152e-01
4.849063813526939271e-01
4.906381352693924280e-01
5.108903324417272129e-01
4.998089415361100518e-01
5.170042032862055548e-01
4.925487199082919099e-01
5.150936186473060729e-01
4.986625907527703627e-01
4.967520061138708254e-01
4.967520061138708254e-01
4.879633167749331535e-01
5.070691631639281383e-01
5.001910584638900037e-01
4.829957967137944452e-01
4.891096675582728426e-01
4.986625907527703627e-01
4.891096675582728426e-01
5.032479938861291746e-01
4.845242644249140307e-01
4.894917844860527389e-01
5.017195261750095892e-01
4.956056553305311363e-01
4.986625907527703627e-01
5.089797478028276201e-01
5.047764615972487601e-01
5.017195261750095892e-01
5.097439816583874128e-01
5.200611387084448367e-01
5.078333970194879310e-01
4.956056553305311363e-01
5.032479938861291746e-01
5.078333970194879310e-01
4.986625907527703627e-01
4.940771876194115508e-01
4.971341230416507218e-01
4.921666029805120135e-01
4.803209782193351152e-01
4.849063813526939271e-01
4.925487199082919099e-01
4.818494459304547006e-01
5.063049293083683455e-01
4.894917844860527389e-01
5.047764615972487601e-01
5.001910584638900037e-01
4.971341230416507218e-01
5.059228123805884492e-01
5.001910584638900037e-01
5.074512800917080346e-01
5.078333970194879310e-01
4.952235384027512399e-01
4.998089415361100518e-01
4.986625907527703627e-01
4.829957967137944452e-01
4.722965227359571805e-01
4.860527321360336162e-01
4.711501719526174914e-01
4.615972487581199712e-01
4.849063813526939271e-01
4.818494459304547006e-01
4.803209782193351152e-01
4.891096675582728426e-01
4.814673290026748043e-01
4.768819258693159924e-01
4.829957967137944452e-01
4.772640427970958887e-01
4.833779136415743416e-01
4.986625907527703627e-01
4.757355750859763033e-01
4.936950706916316545e-01
4.665647688192586795e-01
4.742071073748567178e-01
4.772640427970958887e-01
4.619793656858998676e-01
4.619793656858998676e-01
4.604508979747802822e-01
4.696217042414979059e-01
4.436377531524646756e-01
4.554833779136415739e-01
4.665647688192586795e-01
4.757355750859763033e-01
4.619793656858998676e-01
4.661826518914787831e-01
4.772640427970958887e-01
4.661826518914787831e-01
4.726786396637370768e-01
4.711501719526174914e-01
4.680932365303783205e-01
4.642720672525793013e-01
4.604508979747802822e-01
4.493695070691631765e-01
4.497516239969430729e-01
4.463125716469239501e-01
4.390523500191058637e-01
4.432556362246847792e-01
4.570118456247611594e-01
4.539549102025219884e-01
4.329384791746274108e-01
4.466946885747038465e-01
4.512800917080626584e-01
4.340848299579671554e-01
4.493695070691631765e-01
4.482231562858234875e-01
4.356132976690867409e-01
4.512800917080626584e-01
4.604508979747802822e-01
4.619793656858998676e-01
4.570118456247611594e-01
4.466946885747038465e-01
4.505158578525028656e-01
4.359954145968666372e-01
4.447841039358043647e-01
4.191822697745510307e-01
4.421092854413450346e-01
4.252961406190294280e-01
4.069545280855941805e-01
4.115399312189529923e-01
4.207107374856706161e-01
4.268246083301490135e-01
4.237676729079098426e-01
4.100114635078334069e-01
4.237676729079098426e-01
4.195643867023309270e-01
4.203286205578907198e-01
4.279709591134887026e-01
4.245319067634696353e-01
4.329384791746274108e-01
4.161253343523118042e-01
4.268246083301490135e-01
4.283530760412686544e-01
4.157432174245319079e-01
4.157432174245319079e-01
4.145968666411922188e-01
4.054260603744745950e-01
3.993121895299961976e-01
4.038975926633550095e-01
3.928162017577378484e-01
4.054260603744745950e-01
4.023691249522353686e-01
4.130683989300725778e-01
3.958731371799770749e-01
4.145968666411922188e-01
3.993121895299961976e-01
4.008406572411157831e-01
4.191822697745510307e-01
4.100114635078334069e-01
4.100114635078334069e-01
4.207107374856706161e-01
3.970194879633167639e-01
4.008406572411157831e-01
3.962552541077569712e-01
3.947267863966373858e-01
3.958731371799770749e-01
3.870844478410393474e-01
3.993121895299961976e-01
3.779136415743217237e-01
3.977837218188765567e-01
3.809705769965609501e-01
3.794421092854413646e-01
3.974016048910966603e-01
3.821169277799006392e-01
4.035154757355751132e-01
3.840275124188001765e-01
4.069545280855941805e-01
3.886129155521589329e-01
4.054260603744745950e-01
3.943446694688574894e-01
3.916698509743981593e-01
4.023691249522353686e-01
3.882307986243790365e-01
3.962552541077569712e-01
3.931983186855177448e-01
3.717997707298433263e-01
3.805884600687810537e-01
3.687428353076040999e-01
3.897592663354986775e-01
3.733282384409629118e-01
3.714176538020634299e-01
3.641574321742453435e-01
3.702713030187237409e-01
3.821169277799006392e-01
3.729461215131830154e-01
3.897592663354986775e-01
3.821169277799006392e-01
3.928162017577378484e-01
3.974016048910966603e-01
3.836453954910202246e-01
3.882307986243790365e-01
3.886129155521589329e-01
3.809705769965609501e-01
3.855559801299197620e-01
3.821169277799006392e-01
3.622468475353458062e-01
3.565150936186473052e-01
3.626289644631257025e-01
3.561329766908674088e-01
3.656858998853649290e-01
3.549866259075277197e-01
3.519296904852884933e-01
3.553687428353076161e-01
3.733282384409629118e-01
3.867023309132594511e-01
3.717997707298433263e-01
3.882307986243790365e-01
3.805884600687810537e-01
3.844096293465800729e-01
3.729461215131830154e-01
3.832632785632403283e-01
3.714176538020634299e-01
3.622468475353458062e-01
3.824990447076805355e-01
3.549866259075277197e-01
3.611004967520061171e-01
3.656858998853649290e-01
3.626289644631257025e-01
3.591899121131066352e-01
3.515475735575085969e-01
3.591899121131066352e-01
3.607183798242262207e-01
3.515475735575085969e-01
3.565150936186473052e-01
3.534581581964080788e-01
3.824990447076805355e-01
3.809705769965609501e-01
3.870844478410393474e-01
3.824990447076805355e-01
3.733282384409629118e-01
3.668322506687046181e-01
3.698891860909438445e-01
3.702713030187237409e-01
3.809705769965609501e-01
3.549866259075277197e-01
3.653037829575850326e-01
3.454337027130301996e-01
3.656858998853649290e-01
3.530760412686281824e-01
3.412304165074512841e-01
3.397019487963316986e-01
3.561329766908674088e-01
3.439052350019105586e-01
3.500191058463890115e-01
3.668322506687046181e-01
3.591899121131066352e-01
3.733282384409629118e-01
3.611004967520061171e-01
3.546045089797478234e-01
3.752388230798624491e-01
3.656858998853649290e-01
3.591899121131066352e-01
3.534581581964080788e-01
3.637753152464653916e-01
3.611004967520061171e-01
3.504012227741689078e-01
3.530760412686281824e-01
3.362628964463125758e-01
3.377913641574321613e-01
3.500191058463890115e-01
3.561329766908674088e-01
3.473442873519296814e-01
3.473442873519296814e-01
3.683607183798242035e-01
3.381734810852120576e-01
3.595720290408865316e-01
3.549866259075277197e-01
3.580435613297668906e-01
3.656858998853649290e-01
3.595720290408865316e-01
3.469621704241497850e-01
3.626289644631257025e-01
3.473442873519296814e-01
3.626289644631257025e-01
3.622468475353458062e-01
3.335880779518532457e-01
3.370271303018723685e-01
3.351165456629728867e-01
3.290026748184944339e-01
3.458158196408100959e-01
3.213603362628964510e-01
3.427588842185708695e-01
3.377913641574321613e-01
3.362628964463125758e-01
3.549866259075277197e-01
3.442873519296905105e-01
3.412304165074512841e-01
3.641574321742453435e-01
3.714176538020634299e-01
3.733282384409629118e-01
3.500191058463890115e-01
3.519296904852884933e-01
3.534581581964080788e-01
3.458158196408100959e-01
3.442873519296905105e-01
3.481085212074894741e-01
3.397019487963316986e-01
3.530760412686281824e-01
3.347344287351929903e-01
3.515475735575085969e-01
3.595720290408865316e-01
3.549866259075277197e-01
3.439052350019105586e-01
3.698891860909438445e-01
3.607183798242262207e-01
3.794421092854413646e-01
3.870844478410393474e-01
3.912877340466182630e-01
3.962552541077569712e-01
3.901413832632785739e-01
3.897592663354986775e-01
3.947267863966373858e-01
3.882307986243790365e-01
4.084829957967138214e-01
4.023691249522353686e-01
4.023691249522353686e-01
4.035154757355751132e-01
4.130683989300725778e-01
4.084829957967138214e-01
4.100114635078334069e-01
4.233855559801299462e-01
4.191822697745510307e-01
4.386702330913259673e-01
4.421092854413450346e-01
4.711501719526174914e-01
4.757355750859763033e-01
4.818494459304547006e-01
4.952235384027512399e-01
4.879633167749331535e-01
5.166220863584256584e-01
5.017195261750095892e-01
5.185326709973251402e-01
5.200611387084448367e-01
5.215896064195644222e-01
5.170042032862055548e-01
5.261750095529231785e-01
5.246465418418035931e-01
5.319067634696217350e-01
5.517768437141765681e-01
5.395491020252196623e-01
5.533053114252961535e-01
5.766144440198700538e-01
5.750859763087504684e-01
5.888421857088268485e-01
5.949560565533053014e-01
6.071837982422620961e-01
6.132976690867405489e-01
6.148261367978601344e-01
6.316392816201757965e-01
6.362246847535345529e-01
6.343141001146350710e-01
6.346962170424149674e-01
6.331677493312953819e-01
6.515093618647306295e-01
6.404279709591135239e-01
6.434849063813526948e-01
6.572411157814290750e-01
6.541841803591899041e-01
6.587695834925487715e-01
6.729079098204050480e-01
6.698509743981658771e-01
6.713794421092854625e-01
6.820787160871226718e-01
6.912495223538402955e-01
7.050057317539166757e-01
7.141765380206342995e-01
6.988918609094383338e-01
7.034772640427970902e-01
7.260221627818111978e-01
7.157050057317538849e-01
7.275506304929307833e-01
7.367214367596484070e-01
7.264042797095910942e-01
7.214367596484524414e-01
7.229652273595720269e-01
7.248758119984715087e-01
7.233473442873519232e-01
7.076805502483759502e-01
7.172334734428734704e-01
7.187619411539931669e-01
7.340466182651891325e-01
7.279327474207107906e-01
7.309896828429499616e-01
7.306075659151700652e-01
7.416889568207871708e-01
7.294612151318303761e-01
7.447458922430263417e-01
7.336645013374092361e-01
7.657623232709208638e-01
7.508597630875047946e-01
7.627053878486816929e-01
7.428353076041268599e-01
7.504776461597248982e-01
7.397783721818876890e-01
7.539166985097439655e-01
7.416889568207871708e-01
7.478028276652656237e-01
7.520061138708444837e-01
7.355750859763087179e-01
7.371035536874283034e-01
7.244936950706916123e-01
7.336645013374092361e-01
7.309896828429499616e-01
7.458922430263660308e-01
7.458922430263660308e-01
7.462743599541459272e-01
7.508597630875047946e-01
7.569736339319831364e-01
7.447458922430263417e-01
7.554451662208635510e-01
7.340466182651891325e-01
7.371035536874283034e-01
7.248758119984715087e-01
7.218188765762323378e-01
7.340466182651891325e-01
7.218188765762323378e-01
7.264042797095910942e-01
7.019487963316775048e-01
7.168513565150935740e-01
7.153228888039739886e-01
7.050057317539166757e-01
7.065341994650362611e-01
7.046236148261367793e-01
7.030951471150171939e-01
7.264042797095910942e-01
7.095911348872755431e-01
7.004203286205579193e-01
7.111196025983951285e-01
7.233473442873519232e-01
7.279327474207107906e-01
7.069163163928161575e-01
7.153228888039739886e-01
6.923958731371799846e-01
7.034772640427970902e-01
7.061520825372563648e-01
6.985097439816584375e-01
6.897210546427207101e-01
6.667940389759265951e-01
6.740542606037447371e-01
6.744363775315246334e-01
6.637371035536874242e-01
6.560947649980893859e-01
6.599159342758884605e-01
6.602980512036683569e-01
6.591517004203286678e-01
6.622086358425678387e-01
6.698509743981658771e-01
6.755827283148643225e-01
6.667940389759265951e-01
6.511272449369507331e-01
6.518914787925105259e-01
6.541841803591899041e-01
6.606801681314482533e-01
6.362246847535345529e-01
6.388995032479939384e-01
6.159724875811998235e-01
6.132976690867405489e-01
6.102407336645013780e-01
6.205578907145586909e-01
6.209400076423385872e-01
6.087122659533816815e-01
6.098586167367214816e-01
6.117692013756209635e-01
6.041268628200229251e-01
6.209400076423385872e-01
6.098586167367214816e-01
6.068016813144821997e-01
6.102407336645013780e-01
6.056553305311425106e-01
6.144440198700802380e-01
6.144440198700802380e-01
6.025983951089033397e-01
5.888421857088268485e-01
5.811998471532289212e-01
5.934275888421857159e-01
5.720290408865112974e-01
5.659151700420328446e-01
5.689721054642720155e-01
5.705005731753917120e-01
5.491020252197171825e-01
5.578907145586549099e-01
5.735575085976308829e-01
5.582728314864348063e-01
5.517768437141765681e-01
5.491020252197171825e-01
5.613297669086740882e-01
5.674436377531524300e-01
5.655330531142529482e-01
5.670615208253725337e-01
5.670615208253725337e-01
5.475735575085975970e-01
5.429881543752388406e-01
5.380206343141000769e-01
5.307604126862820459e-01
5.353458158196408023e-01
5.269392434084829713e-01
5.212074894917845258e-01
5.303782957585021496e-01
5.150936186473060729e-01
5.170042032862055548e-01
5.093618647306075164e-01
5.124188001528467984e-01
5.089797478028276201e-01
5.120366832250669020e-01
5.093618647306075164e-01
5.089797478028276201e-01
5.047764615972487601e-01
5.353458158196408023e-01
5.200611387084448367e-01
5.017195261750095892e-01
5.242644249140236967e-01
4.982804738249904664e-01
5.063049293083683455e-01
4.894917844860527389e-01
4.879633167749331535e-01
4.787925105082155297e-01
4.921666029805120135e-01
4.753534581581964069e-01
4.768819258693159924e-01
4.665647688192586795e-01
4.619793656858998676e-01
4.726786396637370768e-01
4.600687810470003858e-01
4.722965227359571805e-01
4.619793656858998676e-01
4.742071073748567178e-01
4.665647688192586795e-01
4.803209782193351152e-01
4.692395873137180096e-01
4.680932365303783205e-01
4.570118456247611594e-01
4.650363011081390940e-01
4.417271685135651382e-01
4.635078333970195086e-01
4.524264424914023475e-01
4.359954145968666372e-01
4.375238823079862227e-01
4.375238823079862227e-01
4.436377531524646756e-01
4.375238823079862227e-01
4.279709591134887026e-01
4.279709591134887026e-01
4.436377531524646756e-01
4.252961406190294280e-01
4.283530760412686544e-01
4.421092854413450346e-01
4.436377531524646756e-01
4.272067252579289098e-01
4.325563622468475145e-01
4.371417653802063263e-01
4.329384791746274108e-01
4.386702330913259673e-01
4.298815437523882399e-01
4.386702330913259673e-01
4.268246083301490135e-01
4.218570882690103052e-01
4.264424914023691171e-01
4.145968666411922188e-01
4.218570882690103052e-01
4.252961406190294280e-01
4.252961406190294280e-01
4.203286205578907198e-01
4.283530760412686544e-01
4.207107374856706161e-01
4.130683989300725778e-01
4.283530760412686544e-01
4.405808177302254491e-01
4.222392051967902016e-01
4.283530760412686544e-01
4.314100114635078254e-01
4.172716851356514933e-01
4.180359189912112861e-01
4.145968666411922188e-01
4.314100114635078254e-01
4.329384791746274108e-01
4.237676729079098426e-01
4.283530760412686544e-01
4.161253343523118042e-01
4.145968666411922188e-01
4.069545280855941805e-01
4.100114635078334069e-01
4.252961406190294280e-01
4.218570882690103052e-01
4.264424914023691171e-01
4.314100114635078254e-01
4.405808177302254491e-01
4.264424914023691171e-01
4.482231562858234875e-01
4.279709591134887026e-01
4.508979747802827620e-01
4.451662208635842610e-01
4.421092854413450346e-01
4.405808177302254491e-01
4.421092854413450346e-01
4.386702330913259673e-01
4.264424914023691171e-01
4.436377531524646756e-01
4.314100114635078254e-01
4.390523500191058637e-01
4.207107374856706161e-01
4.447841039358043647e-01
4.371417653802063263e-01
4.359954145968666372e-01
4.390523500191058637e-01
4.482231562858234875e-01
4.646541841803591977e-01
4.665647688192586795e-01
4.665647688192586795e-01
4.635078333970195086e-01
4.528085594191822438e-01
4.573939625525410557e-01
4.619793656858998676e-01
4.554833779136415739e-01
4.638899503247994049e-01
4.528085594191822438e-01
4.405808177302254491e-01
4.375238823079862227e-01
4.497516239969430729e-01
4.390523500191058637e-01
4.604508979747802822e-01
4.482231562858234875e-01
4.589224302636606967e-01
4.512800917080626584e-01
4.665647688192586795e-01
4.558654948414214703e-01
4.696217042414979059e-01
4.772640427970958887e-01
4.722965227359571805e-01
4.696217042414979059e-01
4.638899503247994049e-01
4.692395873137180096e-01
4.680932365303783205e-01
4.787925105082155297e-01
4.803209782193351152e-01
4.787925105082155297e-01
4.696217042414979059e-01
4.726786396637370768e-01
4.665647688192586795e-01
4.604508979747802822e-01
4.524264424914023475e-01
4.665647688192586795e-01
4.581581964081009040e-01
4.707680550248375950e-01
4.696217042414979059e-01
4.833779136415743416e-01
4.894917844860527389e-01
4.707680550248375950e-01
4.849063813526939271e-01
4.967520061138708254e-01
4.845242644249140307e-01
4.967520061138708254e-01
4.971341230416507218e-01
4.849063813526939271e-01
4.891096675582728426e-01
4.711501719526174914e-01
4.680932365303783205e-01
4.726786396637370768e-01
4.753534581581964069e-01
4.722965227359571805e-01
4.650363011081390940e-01
4.604508979747802822e-01
4.573939625525410557e-01
4.772640427970958887e-01
4.696217042414979059e-01
4.757355750859763033e-01
4.849063813526939271e-01
4.940771876194115508e-01
4.818494459304547006e-01
4.849063813526939271e-01
4.845242644249140307e-01
4.818494459304547006e-01
4.925487199082919099e-01
4.722965227359571805e-01
4.772640427970958887e-01
4.635078333970195086e-01
4.585403133358808003e-01
4.787925105082155297e-01
4.707680550248375950e-01
4.451662208635842610e-01
4.703859380970576987e-01
4.543370271303018848e-01
4.528085594191822438e-01
4.631257164692396122e-01
4.742071073748567178e-01
4.742071073748567178e-01
4.818494459304547006e-01
4.814673290026748043e-01
4.661826518914787831e-01
4.833779136415743416e-01
4.818494459304547006e-01
4.803209782193351152e-01
4.619793656858998676e-01
4.646541841803591977e-01
4.726786396637370768e-01
4.650363011081390940e-01
4.482231562858234875e-01
4.524264424914023475e-01
4.386702330913259673e-01
4.512800917080626584e-01
4.493695070691631765e-01
4.486052732136033838e-01
4.405808177302254491e-01
4.600687810470003858e-01
4.677111196025983686e-01
4.677111196025983686e-01
4.604508979747802822e-01
4.558654948414214703e-01
4.677111196025983686e-01
4.753534581581964069e-01
4.508979747802827620e-01
4.512800917080626584e-01
4.493695070691631765e-01
4.478410393580435356e-01
4.436377531524646756e-01
4.558654948414214703e-01
4.486052732136033838e-01
4.340848299579671554e-01
4.283530760412686544e-01
4.264424914023691171e-01
4.451662208635842610e-01
4.329384791746274108e-01
4.298815437523882399e-01
4.237676729079098426e-01
4.451662208635842610e-01
4.493695070691631765e-01
4.344669468857470518e-01
4.417271685135651382e-01
4.497516239969430729e-01
4.497516239969430729e-01
4.631257164692396122e-01
4.356132976690867409e-01
4.359954145968666372e-01
4.493695070691631765e-01
4.436377531524646756e-01
4.371417653802063263e-01
4.145968666411922188e-01
4.222392051967902016e-01
4.035154757355751132e-01
4.249140236912495316e-01
4.069545280855941805e-01
4.038975926633550095e-01
4.115399312189529923e-01
4.237676729079098426e-01
4.142147497134123224e-01
4.149789835689721151e-01
4.283530760412686544e-01
4.325563622468475145e-01
4.329384791746274108e-01
4.375238823079862227e-01
4.222392051967902016e-01
4.283530760412686544e-01
4.203286205578907198e-01
4.191822697745510307e-01
4.161253343523118042e-01
4.096293465800535105e-01
3.977837218188765567e-01
3.928162017577378484e-01
3.901413832632785739e-01
4.019870080244554722e-01
4.069545280855941805e-01
3.870844478410393474e-01
4.100114635078334069e-01
4.069545280855941805e-01
3.947267863966373858e-01
4.126862820022926814e-01
4.100114635078334069e-01
4.130683989300725778e-01
4.188001528467711343e-01
4.207107374856706161e-01
4.126862820022926814e-01
3.958731371799770749e-01
4.130683989300725778e-01
3.928162017577378484e-01
3.867023309132594511e-01
3.855559801299197620e-01
3.974016048910966603e-01
3.916698509743981593e-01
3.805884600687810537e-01
3.905235001910584702e-01
3.855559801299197620e-01
3.794421092854413646e-01
3.897592663354986775e-01
3.928162017577378484e-01
3.882307986243790365e-01
3.886129155521589329e-01
3.794421092854413646e-01
3.809705769965609501e-01
3.974016048910966603e-01
4.050439434466946986e-01
3.974016048910966603e-01
3.794421092854413646e-01
3.931983186855177448e-01
3.836453954910202246e-01
3.714176538020634299e-01
3.916698509743981593e-01
3.760030569354222418e-01
3.549866259075277197e-01
3.779136415743217237e-01
3.717997707298433263e-01
3.672143675964845144e-01
3.687428353076040999e-01
3.641574321742453435e-01
3.744745892243026564e-01
3.836453954910202246e-01
3.855559801299197620e-01
3.748567061520825527e-01
3.672143675964845144e-01
3.901413832632785739e-01
3.958731371799770749e-01
3.855559801299197620e-01
3.672143675964845144e-01
3.668322506687046181e-01
3.611004967520061171e-01
3.733282384409629118e-01
3.530760412686281824e-01
3.748567061520825527e-01
3.714176538020634299e-01
3.519296904852884933e-01
3.580435613297668906e-01
3.656858998853649290e-01
3.500191058463890115e-01
3.702713030187237409e-01
3.591899121131066352e-01
3.534581581964080788e-01
3.565150936186473052e-01
3.794421092854413646e-01
3.626289644631257025e-01
3.717997707298433263e-01
3.607183798242262207e-01
3.580435613297668906e-01
3.656858998853649290e-01
3.530760412686281824e-01
3.565150936186473052e-01
3.672143675964845144e-01
3.565150936186473052e-01
3.504012227741689078e-01
3.351165456629728867e-01
3.565150936186473052e-01
3.442873519296905105e-01
3.393198318685518022e-01
3.393198318685518022e-01
3.549866259075277197e-01
3.504012227741689078e-01
3.515475735575085969e-01
3.458158196408100959e-01
3.595720290408865316e-01
3.611004967520061171e-01
3.763851738632021382e-01
3.641574321742453435e-01
3.775315246465418273e-01
3.576614444019869943e-01
3.641574321742453435e-01
3.484906381352693705e-01
3.565150936186473052e-01
3.637753152464653916e-01
3.549866259075277197e-01
3.347344287351929903e-01
3.484906381352693705e-01
3.305311425296140748e-01
3.488727550630492669e-01
3.484906381352693705e-01
3.397019487963316986e-01
3.576614444019869943e-01
3.611004967520061171e-01
3.565150936186473052e-01
3.549866259075277197e-01
3.641574321742453435e-01
3.595720290408865316e-01
3.473442873519296814e-01
3.473442873519296814e-01
3.691249522353840518e-01
3.412304165074512841e-01
3.637753152464653916e-01
3.595720290408865316e-01
3.549866259075277197e-01
3.351165456629728867e-01
3.381734810852120576e-01
3.458158196408100959e-01
3.454337027130301996e-01
3.290026748184944339e-01
3.228888039740160365e-01
3.580435613297668906e-01
3.484906381352693705e-01
3.641574321742453435e-01
3.653037829575850326e-01
3.393198318685518022e-01
3.454337027130301996e-01
3.488727550630492669e-01
3.622468475353458062e-01
3.484906381352693705e-01
3.546045089797478234e-01
3.641574321742453435e-01
3.393198318685518022e-01
3.607183798242262207e-01
3.442873519296905105e-01
3.504012227741689078e-01
3.408482995796713877e-01
3.427588842185708695e-01
3.270920901795949520e-01
3.381734810852120576e-01
3.270920901795949520e-01
3.473442873519296814e-01
3.397019487963316986e-01
3.347344287351929903e-01
3.416125334352311804e-01
3.488727550630492669e-01
3.549866259075277197e-01
3.442873519296905105e-01
3.473442873519296814e-01
3.641574321742453435e-01
3.580435613297668906e-01
3.488727550630492669e-01
3.416125334352311804e-01
3.519296904852884933e-01
3.290026748184944339e-01
3.255636224684753666e-01
3.213603362628964510e-01
3.458158196408100959e-01
3.412304165074512841e-01
3.286205578907145375e-01
3.244172716851356775e-01
3.247993886129155738e-01
3.255636224684753666e-01
3.458158196408100959e-01
3.519296904852884933e-01
3.561329766908674088e-01
3.504012227741689078e-01
3.637753152464653916e-01
3.565150936186473052e-01
3.637753152464653916e-01
3.595720290408865316e-01
3.576614444019869943e-01
3.377913641574321613e-01
3.458158196408100959e-01
3.469621704241497850e-01
3.366450133740924722e-01
3.366450133740924722e-01
3.591899121131066352e-01
3.332059610240733494e-01
3.549866259075277197e-01
3.427588842185708695e-01
3.626289644631257025e-01
3.733282384409629118e-01
3.779136415743217237e-01
3.928162017577378484e-01
3.809705769965609501e-01
3.779136415743217237e-01
4.054260603744745950e-01
3.931983186855177448e-01
3.962552541077569712e-01
4.130683989300725778e-01
4.207107374856706161e-01
4.207107374856706161e-01
4.115399312189529923e-01
4.100114635078334069e-01
4.176538020634313897e-01
4.222392051967902016e-01
4.375238823079862227e-01
4.359954145968666372e-01
4.539549102025219884e-01
4.451662208635842610e-01
4.558654948414214703e-01
4.849063813526939271e-01
4.910202521971723244e-01
4.833779136415743416e-01
5.185326709973251402e-01
5.108903324417272129e-01
5.292319449751623495e-01
5.334352311807413205e-01
5.307604126862820459e-01
5.533053114252961535e-01
5.598012991975545027e-01
5.536874283530760499e-01
5.471914405808177007e-01
5.659151700420328446e-01
5.536874283530760499e-01
5.781429117309896393e-01
5.857852502865876776e-01
5.930454719144058195e-01
5.731753916698509865e-01
6.144440198700802380e-01
6.041268628200229251e-01
6.144440198700802380e-01
6.194115399312190018e-01
6.289644631257165219e-01
6.316392816201757965e-01
6.515093618647306295e-01
6.606801681314482533e-01
6.744363775315246334e-01
6.832250668704623608e-01
6.786396637371036045e-01
6.836071837982422572e-01
6.801681314482231899e-01
6.744363775315246334e-01
6.729079098204050480e-01
6.866641192204814281e-01
6.771111960259839080e-01
6.973633931983186374e-01
7.019487963316775048e-01
7.015666794038976084e-01
6.897210546427207101e-01
7.111196025983951285e-01
7.076805502483759502e-01
7.264042797095910942e-01
7.264042797095910942e-01
7.233473442873519232e-01
7.386320213985479999e-01
7.340466182651891325e-01
7.600305693542224184e-01
7.504776461597248982e-01
7.351929690485288216e-01
7.478028276652656237e-01
7.462743599541459272e-01
7.615590370653420038e-01
7.401604891096675853e-01
7.386320213985479999e-01
7.447458922430263417e-01
7.466564768819258235e-01
7.447458922430263417e-01
7.474207107374856163e-01
7.504776461597248982e-01
7.707298433320596276e-01
7.508597630875047946e-01
7.676729079098204567e-01
7.493312953763852091e-01
7.523882307986243800e-01
7.661444401987007602e-01
7.661444401987007602e-01
7.768437141765379694e-01
7.737867787542987985e-01
7.779900649598777695e-01
7.692013756209400421e-01
7.722583110431792131e-01
7.661444401987007602e-01
7.600305693542224184e-01
7.581199847153229365e-01
7.630875047764615893e-01
7.447458922430263417e-01
7.478028276652656237e-01
7.600305693542224184e-01
7.447458922430263417e-01
7.462743599541459272e-01
7.661444401987007602e-01
7.539166985097439655e-01
7.539166985097439655e-01
7.600305693542224184e-01
7.585021016431028329e-01
7.539166985097439655e-01
7.619411539931219002e-01
7.539166985097439655e-01
7.504776461597248982e-01
7.478028276652656237e-01
7.508597630875047946e-01
7.416889568207871708e-01
7.294612151318303761e-01
7.271685135651508869e-01
7.340466182651891325e-01
7.233473442873519232e-01
7.264042797095910942e-01
7.122659533817348176e-01
7.325181505540695470e-01
7.382499044707681035e-01
7.294612151318303761e-01
7.294612151318303761e-01
7.187619411539931669e-01
7.309896828429499616e-01
7.294612151318303761e-01
7.279327474207107906e-01
7.275506304929307833e-01
7.260221627818111978e-01
7.137944210928544031e-01
7.157050057317538849e-01
7.157050057317538849e-01
7.000382116927780229e-01
6.988918609094383338e-01
6.881925869316011246e-01
6.912495223538402955e-01
6.897210546427207101e-01
6.836071837982422572e-01
6.790217806648835008e-01
6.816965991593427754e-01
6.851356515093618427e-01
6.790217806648835008e-01
6.851356515093618427e-01
6.881925869316011246e-01
6.881925869316011246e-01
6.744363775315246334e-01
6.820787160871226718e-01
6.759648452426442189e-01
6.652655712648070097e-01
6.667940389759265951e-01
6.484524264424913476e-01
6.484524264424913476e-01
6.511272449369507331e-01
6.515093618647306295e-01
6.484524264424913476e-01
6.331677493312953819e-01
6.392816201757738348e-01
6.194115399312190018e-01
6.282002292701566182e-01
6.190294230034391054e-01
6.331677493312953819e-01
6.266717615590370327e-01
6.373710355368742420e-01
6.132976690867405489e-01
6.251432938479174473e-01
6.117692013756209635e-01
6.144440198700802380e-01
6.175009552923194089e-01
6.236148261367978618e-01
6.224684753534581727e-01
6.190294230034391054e-01
5.934275888421857159e-01
5.903706534199465450e-01
6.025983951089033397e-01
5.873137179977072631e-01
5.888421857088268485e-01
5.792892625143294394e-01
5.873137179977072631e-01
5.747038593809705720e-01
5.842567825754680921e-01
5.643867023309132591e-01
5.811998471532289212e-01
5.705005731753917120e-01
5.777607948032097429e-01
5.827283148643485067e-01
5.808177302254490249e-01
5.735575085976308829e-01
5.842567825754680921e-01
5.735575085976308829e-01
5.762323270920901574e-01
5.521589606419564644e-01
5.475735575085975970e-01
5.510126098586167753e-01
5.368742835307603878e-01
5.338173481085212169e-01
5.403133358807795661e-01
5.395491020252196623e-01
5.277034772640427640e-01
5.242644249140236967e-01
5.108903324417272129e-01
5.108903324417272129e-01
5.426060374474589443e-01
5.231180741306840076e-01
5.414596866641192552e-01
5.319067634696217350e-01
5.154757355750859693e-01
5.212074894917845258e-01
5.319067634696217350e-01
5.185326709973251402e-01
5.093618647306075164e-01
4.982804738249904664e-01
5.215896064195644222e-01
5.185326709973251402e-01
4.986625907527703627e-01
4.910202521971723244e-01
4.829957967137944452e-01
4.849063813526939271e-01
4.910202521971723244e-01
4.910202521971723244e-01
4.894917844860527389e-01
4.891096675582728426e-01
4.845242644249140307e-01
4.925487199082919099e-01
4.971341230416507218e-01
4.940771876194115508e-01
4.849063813526939271e-01
4.940771876194115508e-01
4.910202521971723244e-01
4.738249904470768215e-01
4.631257164692396122e-01
4.849063813526939271e-01
4.635078333970195086e-01
4.650363011081390940e-01
4.600687810470003858e-01
4.478410393580435356e-01
4.451662208635842610e-01
4.405808177302254491e-01
4.451662208635842610e-01
4.390523500191058637e-01
4.554833779136415739e-01
4.528085594191822438e-01
4.386702330913259673e-01
4.478410393580435356e-01
4.570118456247611594e-01
4.604508979747802822e-01
4.543370271303018848e-01
4.554833779136415739e-01
4.707680550248375950e-01
4.508979747802827620e-01
4.615972487581199712e-01
4.436377531524646756e-01
4.463125716469239501e-01
4.493695070691631765e-01
4.390523500191058637e-01
4.356132976690867409e-01
4.314100114635078254e-01
4.463125716469239501e-01
4.283530760412686544e-01
4.283530760412686544e-01
4.279709591134887026e-01
4.283530760412686544e-01
4.451662208635842610e-01
4.405808177302254491e-01
4.466946885747038465e-01
4.512800917080626584e-01
4.482231562858234875e-01
4.665647688192586795e-01
4.604508979747802822e-01
4.466946885747038465e-01
4.570118456247611594e-01
4.524264424914023475e-01
4.356132976690867409e-01
4.554833779136415739e-01
4.421092854413450346e-01
4.344669468857470518e-01
4.359954145968666372e-01
4.466946885747038465e-01
4.401987008024455528e-01
4.287351929690485508e-01
4.401987008024455528e-01
4.508979747802827620e-01
4.432556362246847792e-01
4.421092854413450346e-01
4.528085594191822438e-01
4.665647688192586795e-01
4.528085594191822438e-01
4.558654948414214703e-01
4.558654948414214703e-01
4.738249904470768215e-01
4.497516239969430729e-01
4.604508979747802822e-01
4.600687810470003858e-01
4.493695070691631765e-01
4.635078333970195086e-01
4.543370271303018848e-01
4.375238823079862227e-01
4.589224302636606967e-01
4.512800917080626584e-01
4.447841039358043647e-01
4.421092854413450346e-01
4.512800917080626584e-01
4.619793656858998676e-01
4.558654948414214703e-01
4.631257164692396122e-01
4.829957967137944452e-01
4.726786396637370768e-01
4.845242644249140307e-01
4.635078333970195086e-01
4.849063813526939271e-01
4.894917844860527389e-01
4.864348490638135125e-01
4.661826518914787831e-01
4.692395873137180096e-01
4.803209782193351152e-01
4.589224302636606967e-01
4.726786396637370768e-01
4.845242644249140307e-01
4.711501719526174914e-01
4.784103935804356333e-01
4.677111196025983686e-01
4.742071073748567178e-01
4.757355750859763033e-01
4.787925105082155297e-01
4.833779136415743416e-01
4.833779136415743416e-01
5.013374092472296928e-01
4.818494459304547006e-01
4.829957967137944452e-01
4.822315628582345970e-01
4.898739014138326353e-01
4.986625907527703627e-01
4.845242644249140307e-01
4.787925105082155297e-01
4.757355750859763033e-01
4.864348490638135125e-01
4.677111196025983686e-01
4.879633167749331535e-01
4.680932365303783205e-01
4.875811998471532016e-01
4.864348490638135125e-01
4.833779136415743416e-01
4.940771876194115508e-01
4.757355750859763033e-01
4.940771876194115508e-01
4.864348490638135125e-01
4.864348490638135125e-01
4.910202521971723244e-01
5.028658769583492782e-01
4.864348490638135125e-01
4.940771876194115508e-01
4.894917844860527389e-01
4.757355750859763033e-01
4.818494459304547006e-01
4.711501719526174914e-01
4.692395873137180096e-01
4.814673290026748043e-01
4.772640427970958887e-01
4.787925105082155297e-01
4.722965227359571805e-01
4.742071073748567178e-01
4.677111196025983686e-01
4.906381352693924280e-01
4.894917844860527389e-01
4.833779136415743416e-01
4.910202521971723244e-01
4.910202521971723244e-01
4.833779136415743416e-01
4.814673290026748043e-01
4.814673290026748043e-01
4.894917844860527389e-01
4.956056553305311363e-01
4.864348490638135125e-01
4.849063813526939271e-01
4.849063813526939271e-01
4.604508979747802822e-01
4.573939625525410557e-01
4.680932365303783205e-01
4.539549102025219884e-01
4.573939625525410557e-01
4.711501719526174914e-01
4.757355750859763033e-01
4.650363011081390940e-01
4.818494459304547006e-01
4.833779136415743416e-01
4.715322888803973878e-01
4.894917844860527389e-01
4.906381352693924280e-01
4.956056553305311363e-01
4.845242644249140307e-01
4.665647688192586795e-01
4.772640427970958887e-01
4.680932365303783205e-01
4.512800917080626584e-01
4.543370271303018848e-01
4.677111196025983686e-01
4.478410393580435356e-01
4.405808177302254491e-01
4.589224302636606967e-01
4.600687810470003858e-01
4.558654948414214703e-01
4.421092854413450346e-01
4.436377531524646756e-01
4.539549102025219884e-01
4.451662208635842610e-01
4.589224302636606967e-01
4.585403133358808003e-01
4.512800917080626584e-01
4.421092854413450346e-01
4.615972487581199712e-01
4.451662208635842610e-01
4.635078333970195086e-01
4.585403133358808003e-01
4.497516239969430729e-01
4.359954145968666372e-01
4.359954145968666372e-01
4.329384791746274108e-01
4.417271685135651382e-01
4.283530760412686544e-01
4.283530760412686544e-01
4.294994268246083435e-01
4.252961406190294280e-01
4.390523500191058637e-01
4.329384791746274108e-01
4.466946885747038465e-01
4.451662208635842610e-01
4.314100114635078254e-01
4.283530760412686544e-01
4.344669468857470518e-01
4.543370271303018848e-01
4.390523500191058637e-01
4.222392051967902016e-01
4.329384791746274108e-01
4.283530760412686544e-01
4.096293465800535105e-01
4.100114635078334069e-01
4.222392051967902016e-01
4.023691249522353686e-01
4.237676729079098426e-01
4.069545280855941805e-01
4.233855559801299462e-01
4.145968666411922188e-01
4.222392051967902016e-01
4.233855559801299462e-01
4.100114635078334069e-01
4.268246083301490135e-01
4.188001528467711343e-01
4.145968666411922188e-01
4.222392051967902016e-01
4.081008788689338695e-01
4.023691249522353686e-01
4.207107374856706161e-01
4.172716851356514933e-01
4.038975926633550095e-01
4.008406572411157831e-01
3.893771494077187811e-01
3.870844478410393474e-01
3.836453954910202246e-01
3.867023309132594511e-01
3.824990447076805355e-01
3.821169277799006392e-01
4.069545280855941805e-01
3.996943064577760940e-01
4.126862820022926814e-01
4.115399312189529923e-01
4.084829957967138214e-01
3.947267863966373858e-01
4.004585403133358867e-01
3.943446694688574894e-01
4.004585403133358867e-01
3.962552541077569712e-01
3.886129155521589329e-01
3.775315246465418273e-01
4.035154757355751132e-01
3.855559801299197620e-01
3.855559801299197620e-01
3.687428353076040999e-01
3.821169277799006392e-01
3.824990447076805355e-01
3.729461215131830154e-01
3.714176538020634299e-01
3.779136415743217237e-01
3.779136415743217237e-01
3.947267863966373858e-01
3.752388230798624491e-01
3.748567061520825527e-01
3.805884600687810537e-01
3.821169277799006392e-01
3.912877340466182630e-01
3.840275124188001765e-01
3.912877340466182630e-01
3.714176538020634299e-01
3.702713030187237409e-01
3.702713030187237409e-01
3.794421092854413646e-01
3.794421092854413646e-01
3.687428353076040999e-01
3.546045089797478234e-01
3.549866259075277197e-01
3.561329766908674088e-01
3.576614444019869943e-01
3.504012227741689078e-01
3.687428353076040999e-01
3.779136415743217237e-01
3.668322506687046181e-01
3.733282384409629118e-01
3.626289644631257025e-01
3.763851738632021382e-01
3.928162017577378484e-01
3.702713030187237409e-01
3.779136415743217237e-01
3.748567061520825527e-01
3.687428353076040999e-01
3.595720290408865316e-01
3.744745892243026564e-01
3.549866259075277197e-01
3.519296904852884933e-01
3.607183798242262207e-01
3.549866259075277197e-01
3.397019487963316986e-01
3.641574321742453435e-01
3.439052350019105586e-01
3.672143675964845144e-01
3.626289644631257025e-01
3.779136415743217237e-01
3.576614444019869943e-01
3.595720290408865316e-01
3.760030569354222418e-01
3.733282384409629118e-01
3.729461215131830154e-01
3.641574321742453435e-01
3.515475735575085969e-01
3.504012227741689078e-01
3.611004967520061171e-01
3.423767672907909732e-01
3.397019487963316986e-01
3.381734810852120576e-01
3.381734810852120576e-01
3.320596102407336603e-01
3.484906381352693705e-01
3.301490256018341785e-01
3.427588842185708695e-01
3.530760412686281824e-01
3.442873519296905105e-01
3.591899121131066352e-01
3.584256782575467870e-01
3.683607183798242035e-01
3.656858998853649290e-01
3.687428353076040999e-01
3.492548719908292187e-01
3.469621704241497850e-01
3.607183798242262207e-01
3.561329766908674088e-01
3.519296904852884933e-01
3.339701948796331421e-01
3.397019487963316986e-01
3.397019487963316986e-01
3.381734810852120576e-01
3.534581581964080788e-01
3.504012227741689078e-01
3.347344287351929903e-01
3.316774933129537639e-01
3.427588842185708695e-01
3.366450133740924722e-01
3.549866259075277197e-01
3.668322506687046181e-01
3.611004967520061171e-01
3.672143675964845144e-01
3.607183798242262207e-01
3.519296904852884933e-01
3.653037829575850326e-01
3.412304165074512841e-01
3.393198318685518022e-01
3.549866259075277197e-01
3.305311425296140748e-01
3.301490256018341785e-01
3.259457393962552629e-01
3.274742071073748484e-01
3.381734810852120576e-01
3.316774933129537639e-01
3.332059610240733494e-01
3.228888039740160365e-01
3.332059610240733494e-01
3.423767672907909732e-01
3.473442873519296814e-01
3.626289644631257025e-01
3.702713030187237409e-01
3.595720290408865316e-01
3.591899121131066352e-01
3.504012227741689078e-01
3.565150936186473052e-01
3.362628964463125758e-01
3.546045089797478234e-01
3.546045089797478234e-01
3.488727550630492669e-01
3.408482995796713877e-01
3.473442873519296814e-01
3.473442873519296814e-01
3.244172716851356775e-01
3.393198318685518022e-01
3.274742071073748484e-01
3.366450133740924722e-01
3.408482995796713877e-01
3.519296904852884933e-01
3.519296904852884933e-01
3.530760412686281824e-01
3.565150936186473052e-01
3.580435613297668906e-01
3.534581581964080788e-01
3.408482995796713877e-01
3.454337027130301996e-01
3.454337027130301996e-01
3.423767672907909732e-01
3.442873519296905105e-01
3.244172716851356775e-01
3.255636224684753666e-01
3.255636224684753666e-01
3.427588842185708695e-01
3.213603362628964510e-01
3.423767672907909732e-01
3.366450133740924722e-01
3.381734810852120576e-01
3.362628964463125758e-01
3.362628964463125758e-01
3.412304165074512841e-01
3.427588842185708695e-01
3.580435613297668906e-01
3.626289644631257025e-01
3.442873519296905105e-01
3.351165456629728867e-01
3.412304165074512841e-01
3.397019487963316986e-01
3.244172716851356775e-01
3.484906381352693705e-01
3.488727550630492669e-01
3.228888039740160365e-01
3.450515857852503032e-01
3.393198318685518022e-01
3.427588842185708695e-01
3.377913641574321613e-01
3.290026748184944339e-01
3.335880779518532457e-01
3.408482995796713877e-01
3.504012227741689078e-01
3.454337027130301996e-01
3.565150936186473052e-01
3.775315246465418273e-01
3.668322506687046181e-01
3.591899121131066352e-01
3.607183798242262207e-01
3.733282384409629118e-01
3.717997707298433263e-01
3.779136415743217237e-01
3.668322506687046181e-01
3.794421092854413646e-01
3.748567061520825527e-01
3.687428353076040999e-01
3.886129155521589329e-01
3.775315246465418273e-01
3.905235001910584702e-01
4.004585403133358867e-01
4.084829957967138214e-01
4.222392051967902016e-01
4.237676729079098426e-01
4.249140236912495316e-01
4.390523500191058637e-01
4.619793656858998676e-01
4.604508979747802822e-01
4.573939625525410557e-01
4.631257164692396122e-01
4.757355750859763033e-01
4.803209782193351152e-01
5.013374092472296928e-01
4.768819258693159924e-01
4.986625907527703627e-01
4.864348490638135125e-01
5.139472678639663838e-01
5.154757355750859693e-01
5.277034772640427640e-01
5.185326709973251402e-01
5.353458158196408023e-01
5.414596866641192552e-01
5.475735575085975970e-01
5.701184562476118156e-01
5.705005731753917120e-01
6.006878104700038579e-01
5.869316010699273667e-01
6.075659151700419924e-01
6.132976690867405489e-01
6.071837982422620961e-01
6.327856324035154856e-01
6.255254107756973436e-01
6.194115399312190018e-01
6.301108139090562110e-01
6.346962170424149674e-01
6.343141001146350710e-01
6.362246847535345529e-01
6.438670233091325912e-01
6.572411157814290750e-01
6.560947649980893859e-01
6.633549866259075278e-01
6.805502483760030863e-01
6.820787160871226718e-01
6.897210546427207101e-01
6.973633931983186374e-01
7.050057317539166757e-01
7.172334734428734704e-01
7.065341994650362611e-01
7.355750859763087179e-01
7.244936950706916123e-01
7.306075659151700652e-01
7.202904088651127523e-01
7.233473442873519232e-01
7.325181505540695470e-01
7.233473442873519232e-01
7.202904088651127523e-01
7.306075659151700652e-01
7.183798242262132705e-01
7.325181505540695470e-01
7.371035536874283034e-01
7.478028276652656237e-01
7.493312953763852091e-01
7.535345815819640691e-01
7.535345815819640691e-01
7.722583110431792131e-01
7.657623232709208638e-01
7.600305693542224184e-01
7.707298433320596276e-01
7.768437141765379694e-01
7.600305693542224184e-01
7.642338555598012784e-01
7.596484524264425220e-01
7.569736339319831364e-01
7.569736339319831364e-01
7.585021016431028329e-01
7.432174245319067563e-01
7.539166985097439655e-01
7.703477264042797312e-01
7.661444401987007602e-01
7.630875047764615893e-01
7.504776461597248982e-01
7.661444401987007602e-01
7.565915170042032400e-01
7.707298433320596276e-01
7.615590370653420038e-01
7.646159724875811747e-01
7.615590370653420038e-01
7.615590370653420038e-01
7.841039358043561114e-01
7.646159724875811747e-01
7.611769201375621074e-01
7.779900649598777695e-01
7.493312953763852091e-01
7.539166985097439655e-01
7.523882307986243800e-01
7.325181505540695470e-01
7.447458922430263417e-01
7.478028276652656237e-01
7.508597630875047946e-01
7.386320213985479999e-01
7.325181505540695470e-01
7.351929690485288216e-01
7.451280091708062381e-01
7.504776461597248982e-01
7.615590370653420038e-01
7.355750859763087179e-01
7.336645013374092361e-01
7.493312953763852091e-01
7.416889568207871708e-01
7.336645013374092361e-01
7.264042797095910942e-01
7.309896828429499616e-01
7.183798242262132705e-01
7.080626671761559576e-01
7.183798242262132705e-01
7.111196025983951285e-01
7.050057317539166757e-01
7.141765380206342995e-01
7.107374856706152322e-01
7.095911348872755431e-01
7.019487963316775048e-01
7.004203286205579193e-01
7.061520825372563648e-01
7.019487963316775048e-01
7.019487963316775048e-01
6.973633931983186374e-01
6.985097439816584375e-01
6.973633931983186374e-01
7.004203286205579193e-01
6.912495223538402955e-01
6.836071837982422572e-01
6.912495223538402955e-01
6.618265189147879424e-01
6.622086358425678387e-01
6.618265189147879424e-01
6.488345433702713549e-01
6.465418418035918657e-01
6.560947649980893859e-01
6.511272449369507331e-01
6.423385555980130057e-01
6.495987772258311477e-01
6.515093618647306295e-01
6.327856324035154856e-01
6.480703095147114512e-01
6.438670233091325912e-01
6.530378295758502150e-01
6.377531524646541383e-01
6.484524264424913476e-01
6.560947649980893859e-01
6.404279709591135239e-01
6.239969430645777582e-01
6.255254107756973436e-01
6.194115399312190018e-01
6.132976690867405489e-01
5.964845242644248868e-01
5.964845242644248868e-01
6.041268628200229251e-01
5.995414596866641688e-01
5.781429117309896393e-01
6.045089797478028215e-01
5.831104317921284030e-01
5.934275888421857159e-01
6.025983951089033397e-01
5.873137179977072631e-01
6.010699273977837542e-01
5.842567825754680921e-01
6.025983951089033397e-01
5.995414596866641688e-01
5.949560565533053014e-01
5.716469239587314011e-01
5.674436377531524300e-01
5.735575085976308829e-01
5.613297669086740882e-01
5.613297669086740882e-01
5.426060374474589443e-01
5.506304929308368790e-01
5.384027512418799732e-01
5.521589606419564644e-01
5.471914405808177007e-01
5.384027512418799732e-01
5.353458158196408023e-01
5.399312189529996697e-01
5.319067634696217350e-01
5.292319449751623495e-01
5.414596866641192552e-01
5.491020252197171825e-01
5.399312189529996697e-01
5.303782957585021496e-01
5.399312189529996697e-01
5.353458158196408023e-01
5.292319449751623495e-01
5.212074894917845258e-01
5.078333970194879310e-01
5.032479938861291746e-01
5.227359572029041113e-01
4.998089415361100518e-01
4.910202521971723244e-01
5.043943446694688637e-01
4.967520061138708254e-01
5.089797478028276201e-01
5.013374092472296928e-01
4.864348490638135125e-01
4.864348490638135125e-01
4.864348490638135125e-01
5.078333970194879310e-01
4.956056553305311363e-01
5.063049293083683455e-01
5.063049293083683455e-01
5.001910584638900037e-01
4.998089415361100518e-01
4.864348490638135125e-01
4.910202521971723244e-01
4.742071073748567178e-01
4.680932365303783205e-01
4.787925105082155297e-01
4.577760794803209521e-01
4.631257164692396122e-01
4.680932365303783205e-01
4.589224302636606967e-01
4.558654948414214703e-01
4.524264424914023475e-01
4.726786396637370768e-01
4.600687810470003858e-01
4.692395873137180096e-01
4.680932365303783205e-01
4.604508979747802822e-01
4.631257164692396122e-01
4.508979747802827620e-01
4.711501719526174914e-01
4.558654948414214703e-01
4.635078333970195086e-01
4.631257164692396122e-01
4.482231562858234875e-01
4.543370271303018848e-01
4.298815437523882399e-01
4.478410393580435356e-01
4.283530760412686544e-01
4.432556362246847792e-01
4.497516239969430729e-01
4.352311807413068445e-01
4.466946885747038465e-01
4.466946885747038465e-01
4.401987008024455528e-01
4.466946885747038465e-01
4.482231562858234875e-01
4.543370271303018848e-01
4.497516239969430729e-01
4.482231562858234875e-01
4.631257164692396122e-01
4.463125716469239501e-01
4.497516239969430729e-01
4.417271685135651382e-01
4.359954145968666372e-01
4.436377531524646756e-01
4.344669468857470518e-01
4.466946885747038465e-01
4.249140236912495316e-01
4.493695070691631765e-01
4.405808177302254491e-01
4.466946885747038465e-01
4.344669468857470518e-01
4.478410393580435356e-01
4.562476117692013666e-01
4.600687810470003858e-01
4.451662208635842610e-01
4.436377531524646756e-01
4.539549102025219884e-01
4.554833779136415739e-01
4.615972487581199712e-01
4.573939625525410557e-01
4.528085594191822438e-01
4.543370271303018848e-01
4.570118456247611594e-01
4.421092854413450346e-01
4.512800917080626584e-01
4.451662208635842610e-01
4.421092854413450346e-01
4.451662208635842610e-01
4.524264424914023475e-01
4.421092854413450346e-01
4.585403133358808003e-01
4.589224302636606967e-01
4.478410393580435356e-01
4.696217042414979059e-01
4.726786396637370768e-01
4.646541841803591977e-01
4.711501719526174914e-01
4.696217042414979059e-01
4.696217042414979059e-01
4.860527321360336162e-01
4.742071073748567178e-01
4.604508979747802822e-01
4.635078333970195086e-01
4.631257164692396122e-01
4.757355750859763033e-01
4.803209782193351152e-01
4.635078333970195086e-01
4.573939625525410557e-01
4.677111196025983686e-01
4.600687810470003858e-01
4.619793656858998676e-01
4.615972487581199712e-01
4.722965227359571805e-01
4.940771876194115508e-01
4.971341230416507218e-01
4.956056553305311363e-01
5.028658769583492782e-01
4.784103935804356333e-01
4.940771876194115508e-01
5.032479938861291746e-01
4.860527321360336162e-01
4.940771876194115508e-01
4.784103935804356333e-01
4.875811998471532016e-01
4.742071073748567178e-01
4.711501719526174914e-01
4.803209782193351152e-01
4.787925105082155297e-01
4.829957967137944452e-01
4.803209782193351152e-01
4.891096675582728426e-01
4.956056553305311363e-01
4.757355750859763033e-01
4.940771876194115508e-01
4.940771876194115508e-01
5.063049293083683455e-01
5.093618647306075164e-01
4.910202521971723244e-01
4.891096675582728426e-01
5.017195261750095892e-01
4.879633167749331535e-01
4.971341230416507218e-01
4.929308368360718617e-01
4.772640427970958887e-01
4.967520061138708254e-01
4.860527321360336162e-01
4.757355750859763033e-01
4.803209782193351152e-01
4.921666029805120135e-01
4.711501719526174914e-01
4.799388612915552188e-01
4.803209782193351152e-01
4.879633167749331535e-01
4.967520061138708254e-01
5.059228123805884492e-01
4.875811998471532016e-01
4.879633167749331535e-01
4.936950706916316545e-01
4.982804738249904664e-01
4.936950706916316545e-01
4.956056553305311363e-01
4.772640427970958887e-01
4.952235384027512399e-01
4.711501719526174914e-01
4.711501719526174914e-01
4.849063813526939271e-01
4.677111196025983686e-01
4.738249904470768215e-01
4.803209782193351152e-01
4.818494459304547006e-01
4.822315628582345970e-01
4.768819258693159924e-01
4.921666029805120135e-01
4.787925105082155297e-01
4.799388612915552188e-01
4.738249904470768215e-01
4.772640427970958887e-01
4.787925105082155297e-01
4.753534581581964069e-01
4.742071073748567178e-01
4.665647688192586795e-01
4.849063813526939271e-01
4.635078333970195086e-01
4.757355750859763033e-01
4.803209782193351152e-01
4.524264424914023475e-01
4.753534581581964069e-01
4.631257164692396122e-01
4.558654948414214703e-01
4.650363011081390940e-01
4.539549102025219884e-01
4.615972487581199712e-01
4.692395873137180096e-01
4.787925105082155297e-01
4.589224302636606967e-01
4.631257164692396122e-01
4.829957967137944452e-01
4.738249904470768215e-01
4.680932365303783205e-01
4.784103935804356333e-01
4.631257164692396122e-01
4.696217042414979059e-01
4.604508979747802822e-01
4.589224302636606967e-01
4.375238823079862227e-01
4.294994268246083435e-01
4.344669468857470518e-01
4.482231562858234875e-01
4.421092854413450346e-01
4.451662208635842610e-01
4.482231562858234875e-01
4.405808177302254491e-01
4.436377531524646756e-01
4.466946885747038465e-01
4.405808177302254491e-01
4.604508979747802822e-01
4.497516239969430729e-01
4.390523500191058637e-01
4.528085594191822438e-01
4.371417653802063263e-01
4.543370271303018848e-01
4.405808177302254491e-01
4.310278945357279290e-01
4.340848299579671554e-01
4.145968666411922188e-01
4.314100114635078254e-01
4.161253343523118042e-01
4.161253343523118042e-01
4.264424914023691171e-01
4.356132976690867409e-01
4.142147497134123224e-01
4.359954145968666372e-01
4.329384791746274108e-01
4.329384791746274108e-01
4.421092854413450346e-01
4.375238823079862227e-01
4.314100114635078254e-01
4.325563622468475145e-01
4.329384791746274108e-01
4.390523500191058637e-01
4.371417653802063263e-01
4.069545280855941805e-01
4.100114635078334069e-01
4.130683989300725778e-01
4.054260603744745950e-01
3.943446694688574894e-01
4.145968666411922188e-01
4.111578142911730960e-01
3.870844478410393474e-01
4.176538020634313897e-01
3.943446694688574894e-01
4.100114635078334069e-01
4.103935804356133032e-01
4.130683989300725778e-01
4.310278945357279290e-01
4.279709591134887026e-01
4.172716851356514933e-01
4.145968666411922188e-01
4.023691249522353686e-01
4.207107374856706161e-01
4.130683989300725778e-01
3.901413832632785739e-01
3.897592663354986775e-01
3.886129155521589329e-01
3.977837218188765567e-01
3.824990447076805355e-01
3.958731371799770749e-01
3.836453954910202246e-01
3.775315246465418273e-01
3.928162017577378484e-01
3.809705769965609501e-01
