3.943446694688574894e-01
3.962552541077569712e-01
4.019870080244554722e-01
4.222392051967902016e-01
4.222392051967902016e-01
4.157432174245319079e-01
4.035154757355751132e-01
4.145968666411922188e-01
3.974016048910966603e-01
4.084829957967138214e-01
3.897592663354986775e-01
3.947267863966373858e-01
4.054260603744745950e-01
4.038975926633550095e-01
4.069545280855941805e-01
3.931983186855177448e-01
3.836453954910202246e-01
4.023691249522353686e-01
3.977837218188765567e-01
4.038975926633550095e-01
4.237676729079098426e-01
3.977837218188765567e-01
4.126862820022926814e-01
4.145968666411922188e-01
4.145968666411922188e-01
4.023691249522353686e-01
3.962552541077569712e-01
4.100114635078334069e-01
4.161253343523118042e-01
3.931983186855177448e-01
4.096293465800535105e-01
3.916698509743981593e-01
3.974016048910966603e-01
3.794421092854413646e-01
3.824990447076805355e-01
3.958731371799770749e-01
4.038975926633550095e-01
3.974016048910966603e-01
3.943446694688574894e-01
3.897592663354986775e-01
3.851738632021398656e-01
3.962552541077569712e-01
3.912877340466182630e-01
4.100114635078334069e-01
3.870844478410393474e-01
3.901413832632785739e-01
4.081008788689338695e-01
3.916698509743981593e-01
3.794421092854413646e-01
3.931983186855177448e-01
3.763851738632021382e-01
4.008406572411157831e-01
3.974016048910966603e-01
3.989300726022163013e-01
4.019870080244554722e-01
3.962552541077569712e-01
3.779136415743217237e-01
3.928162017577378484e-01
3.809705769965609501e-01
3.855559801299197620e-01
4.038975926633550095e-01
3.886129155521589329e-01
4.130683989300725778e-01
3.867023309132594511e-01
3.870844478410393474e-01
3.836453954910202246e-01
3.931983186855177448e-01
3.882307986243790365e-01
4.054260603744745950e-01
3.763851738632021382e-01
3.962552541077569712e-01
3.821169277799006392e-01
3.897592663354986775e-01
3.687428353076040999e-01
3.962552541077569712e-01
3.901413832632785739e-01
3.897592663354986775e-01
4.054260603744745950e-01
3.867023309132594511e-01
3.962552541077569712e-01
3.882307986243790365e-01
3.993121895299961976e-01
3.958731371799770749e-01
3.939625525410775930e-01
3.840275124188001765e-01
3.931983186855177448e-01
3.687428353076040999e-01
3.779136415743217237e-01
3.901413832632785739e-01
3.798242262132212610e-01
3.714176538020634299e-01
3.824990447076805355e-01
3.717997707298433263e-01
3.775315246465418273e-01
3.886129155521589329e-01
3.897592663354986775e-01
3.901413832632785739e-01
3.760030569354222418e-01
3.931983186855177448e-01
3.824990447076805355e-01
3.748567061520825527e-01
3.844096293465800729e-01
3.805884600687810537e-01
3.748567061520825527e-01
3.702713030187237409e-01
3.641574321742453435e-01
3.928162017577378484e-01
3.611004967520061171e-01
3.824990447076805355e-01
3.760030569354222418e-01
3.607183798242262207e-01
3.626289644631257025e-01
3.626289644631257025e-01
3.794421092854413646e-01
3.717997707298433263e-01
3.836453954910202246e-01
3.653037829575850326e-01
3.641574321742453435e-01
3.824990447076805355e-01
3.611004967520061171e-01
3.576614444019869943e-01
3.717997707298433263e-01
3.683607183798242035e-01
3.641574321742453435e-01
3.702713030187237409e-01
3.637753152464653916e-01
3.565150936186473052e-01
3.855559801299197620e-01
3.656858998853649290e-01
3.580435613297668906e-01
3.691249522353840518e-01
3.607183798242262207e-01
3.534581581964080788e-01
3.549866259075277197e-01
3.687428353076040999e-01
3.668322506687046181e-01
3.534581581964080788e-01
3.534581581964080788e-01
3.576614444019869943e-01
3.702713030187237409e-01
3.733282384409629118e-01
3.672143675964845144e-01
3.744745892243026564e-01
3.668322506687046181e-01
3.836453954910202246e-01
3.672143675964845144e-01
3.546045089797478234e-01
3.576614444019869943e-01
3.687428353076040999e-01
3.538402751241879751e-01
3.714176538020634299e-01
3.530760412686281824e-01
3.423767672907909732e-01
3.454337027130301996e-01
3.687428353076040999e-01
3.717997707298433263e-01
3.591899121131066352e-01
3.653037829575850326e-01
3.591899121131066352e-01
3.687428353076040999e-01
3.748567061520825527e-01
3.649216660298051362e-01
3.744745892243026564e-01
3.622468475353458062e-01
3.576614444019869943e-01
3.672143675964845144e-01
3.687428353076040999e-01
3.683607183798242035e-01
3.626289644631257025e-01
3.507833397019488042e-01
3.611004967520061171e-01
3.442873519296905105e-01
3.626289644631257025e-01
3.595720290408865316e-01
3.439052350019105586e-01
3.450515857852503032e-01
3.698891860909438445e-01
3.500191058463890115e-01
3.702713030187237409e-01
3.504012227741689078e-01
3.565150936186473052e-01
3.760030569354222418e-01
3.779136415743217237e-01
3.729461215131830154e-01
3.775315246465418273e-01
3.653037829575850326e-01
3.672143675964845144e-01
3.534581581964080788e-01
3.561329766908674088e-01
3.519296904852884933e-01
3.683607183798242035e-01
3.488727550630492669e-01
3.488727550630492669e-01
3.427588842185708695e-01
3.488727550630492669e-01
3.691249522353840518e-01
3.672143675964845144e-01
3.779136415743217237e-01
3.683607183798242035e-01
3.687428353076040999e-01
3.653037829575850326e-01
3.805884600687810537e-01
3.656858998853649290e-01
3.626289644631257025e-01
3.882307986243790365e-01
3.530760412686281824e-01
3.763851738632021382e-01
3.794421092854413646e-01
3.591899121131066352e-01
3.626289644631257025e-01
3.683607183798242035e-01
3.626289644631257025e-01
3.729461215131830154e-01
3.733282384409629118e-01
3.656858998853649290e-01
3.909056171188383666e-01
3.809705769965609501e-01
3.962552541077569712e-01
4.065724111578142841e-01
3.989300726022163013e-01
4.050439434466946986e-01
3.931983186855177448e-01
4.126862820022926814e-01
4.237676729079098426e-01
4.069545280855941805e-01
4.172716851356514933e-01
4.233855559801299462e-01
4.042797095911349059e-01
4.161253343523118042e-01
4.329384791746274108e-01
4.386702330913259673e-01
4.279709591134887026e-01
4.252961406190294280e-01
4.298815437523882399e-01
4.283530760412686544e-01
4.558654948414214703e-01
4.577760794803209521e-01
4.585403133358808003e-01
4.539549102025219884e-01
4.814673290026748043e-01
4.738249904470768215e-01
4.910202521971723244e-01
4.956056553305311363e-01
4.971341230416507218e-01
5.028658769583492782e-01
5.059228123805884492e-01
5.017195261750095892e-01
5.135651509361864875e-01
5.047764615972487601e-01
5.166220863584256584e-01
5.108903324417272129e-01
5.261750095529231785e-01
5.426060374474589443e-01
5.338173481085212169e-01
5.429881543752388406e-01
5.338173481085212169e-01
5.475735575085975970e-01
5.701184562476118156e-01
5.720290408865112974e-01
5.643867023309132591e-01
5.903706534199465450e-01
5.964845242644248868e-01
5.811998471532289212e-01
5.884600687810469521e-01
6.052732136033626142e-01
5.991593427588842724e-01
6.006878104700038579e-01
5.964845242644248868e-01
6.041268628200229251e-01
6.148261367978601344e-01
6.041268628200229251e-01
6.175009552923194089e-01
6.270538784868169291e-01
6.224684753534581727e-01
6.362246847535345529e-01
6.438670233091325912e-01
6.377531524646541383e-01
6.392816201757738348e-01
6.404279709591135239e-01
6.622086358425678387e-01
6.637371035536874242e-01
6.576232327092089713e-01
6.709973251815055661e-01
6.744363775315246334e-01
6.652655712648070097e-01
6.709973251815055661e-01
6.866641192204814281e-01
6.637371035536874242e-01
6.843714176538020499e-01
6.912495223538402955e-01
6.667940389759265951e-01
6.912495223538402955e-01
6.881925869316011246e-01
6.973633931983186374e-01
6.759648452426442189e-01
7.065341994650362611e-01
7.111196025983951285e-01
7.000382116927780229e-01
6.923958731371799846e-01
7.065341994650362611e-01
7.233473442873519232e-01
7.111196025983951285e-01
7.183798242262132705e-01
7.141765380206342995e-01
7.111196025983951285e-01
6.954528085594191555e-01
7.199082919373328560e-01
7.065341994650362611e-01
7.065341994650362611e-01
7.092090179594956467e-01
7.137944210928544031e-01
7.244936950706916123e-01
7.095911348872755431e-01
7.050057317539166757e-01
7.126480703095147140e-01
7.202904088651127523e-01
7.095911348872755431e-01
7.397783721818876890e-01
7.248758119984715087e-01
7.355750859763087179e-01
7.264042797095910942e-01
7.233473442873519232e-01
7.355750859763087179e-01
7.157050057317538849e-01
7.183798242262132705e-01
7.386320213985479999e-01
7.309896828429499616e-01
7.126480703095147140e-01
7.172334734428734704e-01
7.187619411539931669e-01
7.050057317539166757e-01
7.248758119984715087e-01
7.061520825372563648e-01
7.325181505540695470e-01
7.141765380206342995e-01
7.130301872372946104e-01
7.157050057317538849e-01
7.141765380206342995e-01
7.294612151318303761e-01
7.183798242262132705e-01
7.157050057317538849e-01
7.275506304929307833e-01
7.183798242262132705e-01
7.229652273595720269e-01
7.218188765762323378e-01
7.107374856706152322e-01
7.153228888039739886e-01
7.095911348872755431e-01
6.985097439816584375e-01
7.004203286205579193e-01
7.153228888039739886e-01
7.046236148261367793e-01
7.004203286205579193e-01
6.943064577760794664e-01
6.954528085594191555e-01
6.973633931983186374e-01
6.988918609094383338e-01
7.122659533817348176e-01
7.153228888039739886e-01
7.050057317539166757e-01
7.034772640427970902e-01
7.050057317539166757e-01
6.943064577760794664e-01
7.095911348872755431e-01
6.939243408482995701e-01
6.988918609094383338e-01
6.866641192204814281e-01
6.897210546427207101e-01
6.801681314482231899e-01
6.881925869316011246e-01
6.985097439816584375e-01
6.912495223538402955e-01
6.744363775315246334e-01
6.851356515093618427e-01
6.843714176538020499e-01
6.943064577760794664e-01
6.820787160871226718e-01
6.778754298815437007e-01
6.862820022927015318e-01
6.774933129537638044e-01
6.939243408482995701e-01
6.729079098204050480e-01
6.759648452426442189e-01
6.847535345815819463e-01
6.897210546427207101e-01
6.622086358425678387e-01
6.836071837982422572e-01
6.664119220481466987e-01
6.652655712648070097e-01
6.664119220481466987e-01
6.633549866259075278e-01
6.499808941536110440e-01
6.499808941536110440e-01
6.637371035536874242e-01
6.591517004203286678e-01
6.622086358425678387e-01
6.499808941536110440e-01
6.438670233091325912e-01
6.453954910202521766e-01
6.576232327092089713e-01
6.526557126480703186e-01
6.423385555980130057e-01
6.392816201757738348e-01
6.606801681314482533e-01
6.606801681314482533e-01
6.331677493312953819e-01
6.469239587313717621e-01
6.438670233091325912e-01
6.530378295758502150e-01
6.392816201757738348e-01
6.408100878868934203e-01
6.408100878868934203e-01
6.255254107756973436e-01
6.362246847535345529e-01
6.163546045089797198e-01
6.251432938479174473e-01
6.255254107756973436e-01
6.312571646923959001e-01
6.346962170424149674e-01
6.301108139090562110e-01
6.209400076423385872e-01
6.209400076423385872e-01
6.285823461979365145e-01
6.239969430645777582e-01
6.194115399312190018e-01
6.255254107756973436e-01
6.025983951089033397e-01
6.117692013756209635e-01
5.995414596866641688e-01
6.010699273977837542e-01
6.178830722200993053e-01
6.163546045089797198e-01
6.117692013756209635e-01
6.041268628200229251e-01
5.888421857088268485e-01
6.041268628200229251e-01
5.980129919755444723e-01
6.129155521589606526e-01
5.995414596866641688e-01
6.102407336645013780e-01
6.209400076423385872e-01
5.980129919755444723e-01
5.930454719144058195e-01
5.857852502865876776e-01
5.842567825754680921e-01
5.980129919755444723e-01
5.842567825754680921e-01
5.831104317921284030e-01
5.705005731753917120e-01
5.857852502865876776e-01
5.854031333588077812e-01
5.670615208253725337e-01
5.842567825754680921e-01
5.609476499808941918e-01
5.705005731753917120e-01
5.670615208253725337e-01
5.705005731753917120e-01
5.857852502865876776e-01
5.643867023309132591e-01
5.628582346197936737e-01
5.628582346197936737e-01
5.685899885364921191e-01
5.796713794421093358e-01
5.777607948032097429e-01
5.689721054642720155e-01
5.685899885364921191e-01
5.689721054642720155e-01
5.674436377531524300e-01
5.521589606419564644e-01
5.399312189529996697e-01
5.426060374474589443e-01
5.353458158196408023e-01
5.582728314864348063e-01
5.399312189529996697e-01
5.521589606419564644e-01
5.441345051585785297e-01
5.322888803974016314e-01
5.307604126862820459e-01
5.441345051585785297e-01
5.441345051585785297e-01
5.319067634696217350e-01
5.303782957585021496e-01
5.475735575085975970e-01
5.307604126862820459e-01
5.338173481085212169e-01
5.429881543752388406e-01
5.277034772640427640e-01
5.303782957585021496e-01
5.185326709973251402e-01
5.319067634696217350e-01
5.277034772640427640e-01
5.124188001528467984e-01
5.246465418418035931e-01
5.154757355750859693e-01
5.307604126862820459e-01
5.273213603362628676e-01
5.139472678639663838e-01
5.261750095529231785e-01
5.277034772640427640e-01
5.158578525028658657e-01
5.093618647306075164e-01
5.231180741306840076e-01
5.108903324417272129e-01
5.154757355750859693e-01
5.181505540695452439e-01
5.200611387084448367e-01
5.154757355750859693e-01
5.158578525028658657e-01
5.047764615972487601e-01
5.059228123805884492e-01
4.906381352693924280e-01
4.982804738249904664e-01
5.124188001528467984e-01
4.910202521971723244e-01
5.017195261750095892e-01
4.936950706916316545e-01
5.093618647306075164e-01
5.181505540695452439e-01
5.063049293083683455e-01
5.001910584638900037e-01
4.925487199082919099e-01
5.246465418418035931e-01
5.235001910584639040e-01
4.986625907527703627e-01
5.181505540695452439e-01
4.971341230416507218e-01
4.971341230416507218e-01
4.940771876194115508e-01
5.074512800917080346e-01
4.982804738249904664e-01
4.982804738249904664e-01
4.864348490638135125e-01
5.093618647306075164e-01
4.864348490638135125e-01
4.910202521971723244e-01
4.894917844860527389e-01
4.936950706916316545e-01
4.925487199082919099e-01
5.028658769583492782e-01
5.135651509361864875e-01
4.986625907527703627e-01
4.921666029805120135e-01
5.105082155139473166e-01
4.998089415361100518e-01
5.154757355750859693e-01
5.063049293083683455e-01
5.124188001528467984e-01
4.929308368360718617e-01
5.063049293083683455e-01
5.093618647306075164e-01
4.910202521971723244e-01
5.082155139472678274e-01
4.936950706916316545e-01
5.078333970194879310e-01
4.956056553305311363e-01
4.849063813526939271e-01
4.894917844860527389e-01
5.032479938861291746e-01
4.910202521971723244e-01
5.001910584638900037e-01
5.108903324417272129e-01
5.051585785250286564e-01
5.231180741306840076e-01
4.998089415361100518e-01
4.986625907527703627e-01
5.181505540695452439e-01
5.215896064195644222e-01
5.200611387084448367e-01
4.936950706916316545e-01
5.047764615972487601e-01
5.032479938861291746e-01
5.108903324417272129e-01
5.059228123805884492e-01
4.906381352693924280e-01
4.864348490638135125e-01
5.120366832250669020e-01
5.093618647306075164e-01
5.139472678639663838e-01
5.120366832250669020e-01
4.940771876194115508e-01
5.032479938861291746e-01
5.017195261750095892e-01
5.089797478028276201e-01
5.028658769583492782e-01
5.047764615972487601e-01
4.982804738249904664e-01
4.891096675582728426e-01
4.940771876194115508e-01
4.818494459304547006e-01
4.879633167749331535e-01
5.051585785250286564e-01
4.998089415361100518e-01
5.028658769583492782e-01
4.925487199082919099e-01
5.032479938861291746e-01
5.032479938861291746e-01
5.047764615972487601e-01
4.940771876194115508e-01
5.063049293083683455e-01
4.952235384027512399e-01
4.956056553305311363e-01
4.956056553305311363e-01
4.925487199082919099e-01
4.986625907527703627e-01
4.921666029805120135e-01
4.833779136415743416e-01
4.826136797860144934e-01
4.956056553305311363e-01
4.722965227359571805e-01
4.845242644249140307e-01
4.860527321360336162e-01
4.726786396637370768e-01
4.829957967137944452e-01
4.711501719526174914e-01
4.833779136415743416e-01
4.745892243026366142e-01
4.707680550248375950e-01
4.864348490638135125e-01
4.849063813526939271e-01
4.738249904470768215e-01
4.833779136415743416e-01
4.910202521971723244e-01
4.849063813526939271e-01
4.940771876194115508e-01
4.940771876194115508e-01
4.692395873137180096e-01
4.680932365303783205e-01
4.772640427970958887e-01
4.860527321360336162e-01
4.772640427970958887e-01
4.631257164692396122e-01
4.818494459304547006e-01
4.650363011081390940e-01
4.650363011081390940e-01
4.829957967137944452e-01
4.696217042414979059e-01
4.604508979747802822e-01
4.726786396637370768e-01
4.814673290026748043e-01
4.833779136415743416e-01
4.665647688192586795e-01
4.646541841803591977e-01
4.677111196025983686e-01
4.753534581581964069e-01
4.742071073748567178e-01
4.585403133358808003e-01
4.692395873137180096e-01
4.680932365303783205e-01
4.650363011081390940e-01
4.742071073748567178e-01
4.726786396637370768e-01
4.635078333970195086e-01
4.604508979747802822e-01
4.497516239969430729e-01
4.573939625525410557e-01
4.528085594191822438e-01
4.512800917080626584e-01
4.738249904470768215e-01
4.677111196025983686e-01
4.787925105082155297e-01
4.722965227359571805e-01
4.539549102025219884e-01
4.635078333970195086e-01
4.497516239969430729e-01
4.570118456247611594e-01
4.497516239969430729e-01
4.421092854413450346e-01
4.600687810470003858e-01
4.436377531524646756e-01
4.619793656858998676e-01
4.497516239969430729e-01
4.554833779136415739e-01
4.482231562858234875e-01
4.344669468857470518e-01
4.528085594191822438e-01
4.401987008024455528e-01
4.589224302636606967e-01
4.436377531524646756e-01
4.619793656858998676e-01
4.619793656858998676e-01
4.298815437523882399e-01
4.401987008024455528e-01
4.600687810470003858e-01
4.344669468857470518e-01
4.589224302636606967e-01
4.375238823079862227e-01
4.298815437523882399e-01
4.344669468857470518e-01
4.359954145968666372e-01
4.497516239969430729e-01
4.203286205578907198e-01
4.451662208635842610e-01
4.249140236912495316e-01
4.142147497134123224e-01
4.157432174245319079e-01
4.176538020634313897e-01
4.356132976690867409e-01
4.371417653802063263e-01
4.359954145968666372e-01
4.405808177302254491e-01
4.188001528467711343e-01
4.222392051967902016e-01
4.401987008024455528e-01
4.436377531524646756e-01
4.203286205578907198e-01
4.191822697745510307e-01
4.100114635078334069e-01
4.283530760412686544e-01
4.314100114635078254e-01
4.081008788689338695e-01
4.207107374856706161e-01
4.065724111578142841e-01
4.237676729079098426e-01
4.004585403133358867e-01
4.084829957967138214e-01
4.115399312189529923e-01
4.176538020634313897e-01
4.252961406190294280e-01
4.038975926633550095e-01
4.222392051967902016e-01
4.207107374856706161e-01
4.145968666411922188e-01
4.252961406190294280e-01
4.249140236912495316e-01
4.264424914023691171e-01
3.989300726022163013e-01
4.218570882690103052e-01
4.084829957967138214e-01
4.081008788689338695e-01
4.008406572411157831e-01
3.897592663354986775e-01
3.867023309132594511e-01
4.145968666411922188e-01
3.824990447076805355e-01
4.130683989300725778e-01
4.058081773022544914e-01
3.993121895299961976e-01
3.897592663354986775e-01
4.065724111578142841e-01
4.145968666411922188e-01
4.176538020634313897e-01
4.065724111578142841e-01
3.905235001910584702e-01
4.084829957967138214e-01
4.084829957967138214e-01
4.050439434466946986e-01
4.054260603744745950e-01
3.989300726022163013e-01
4.023691249522353686e-01
4.111578142911730960e-01
3.916698509743981593e-01
3.763851738632021382e-01
3.886129155521589329e-01
4.008406572411157831e-01
4.008406572411157831e-01
3.809705769965609501e-01
4.008406572411157831e-01
3.779136415743217237e-01
3.882307986243790365e-01
3.989300726022163013e-01
4.038975926633550095e-01
4.054260603744745950e-01
3.901413832632785739e-01
3.928162017577378484e-01
3.870844478410393474e-01
4.096293465800535105e-01
3.928162017577378484e-01
4.054260603744745950e-01
3.947267863966373858e-01
3.790599923576614683e-01
3.744745892243026564e-01
3.993121895299961976e-01
3.901413832632785739e-01
3.752388230798624491e-01
3.897592663354986775e-01
3.901413832632785739e-01
4.008406572411157831e-01
3.779136415743217237e-01
3.805884600687810537e-01
3.794421092854413646e-01
4.065724111578142841e-01
4.065724111578142841e-01
3.821169277799006392e-01
3.882307986243790365e-01
3.836453954910202246e-01
4.054260603744745950e-01
3.947267863966373858e-01
3.851738632021398656e-01
3.901413832632785739e-01
3.840275124188001765e-01
3.790599923576614683e-01
3.672143675964845144e-01
3.760030569354222418e-01
3.855559801299197620e-01
3.916698509743981593e-01
3.813526939243408465e-01
3.794421092854413646e-01
3.763851738632021382e-01
4.038975926633550095e-01
3.886129155521589329e-01
3.996943064577760940e-01
3.974016048910966603e-01
3.844096293465800729e-01
4.046618265189148023e-01
4.035154757355751132e-01
3.901413832632785739e-01
3.748567061520825527e-01
3.916698509743981593e-01
3.748567061520825527e-01
3.947267863966373858e-01
3.886129155521589329e-01
3.748567061520825527e-01
3.916698509743981593e-01
3.809705769965609501e-01
3.733282384409629118e-01
3.717997707298433263e-01
3.931983186855177448e-01
3.763851738632021382e-01
3.897592663354986775e-01
3.993121895299961976e-01
4.008406572411157831e-01
3.855559801299197620e-01
3.779136415743217237e-01
3.993121895299961976e-01
3.790599923576614683e-01
3.870844478410393474e-01
3.840275124188001765e-01
3.656858998853649290e-01
3.824990447076805355e-01
3.824990447076805355e-01
3.836453954910202246e-01
3.714176538020634299e-01
3.775315246465418273e-01
3.641574321742453435e-01
3.901413832632785739e-01
3.641574321742453435e-01
3.717997707298433263e-01
4.004585403133358867e-01
3.962552541077569712e-01
3.805884600687810537e-01
3.760030569354222418e-01
3.748567061520825527e-01
3.717997707298433263e-01
3.744745892243026564e-01
3.867023309132594511e-01
3.775315246465418273e-01
3.733282384409629118e-01
3.687428353076040999e-01
3.637753152464653916e-01
3.733282384409629118e-01
3.901413832632785739e-01
3.805884600687810537e-01
3.672143675964845144e-01
3.626289644631257025e-01
3.576614444019869943e-01
3.656858998853649290e-01
3.794421092854413646e-01
3.748567061520825527e-01
4.008406572411157831e-01
3.733282384409629118e-01
3.775315246465418273e-01
3.958731371799770749e-01
3.897592663354986775e-01
3.683607183798242035e-01
3.809705769965609501e-01
3.790599923576614683e-01
3.794421092854413646e-01
3.748567061520825527e-01
3.717997707298433263e-01
3.580435613297668906e-01
3.561329766908674088e-01
3.824990447076805355e-01
3.683607183798242035e-01
3.840275124188001765e-01
3.641574321742453435e-01
3.855559801299197620e-01
3.675964845242644108e-01
3.790599923576614683e-01
3.622468475353458062e-01
3.760030569354222418e-01
3.821169277799006392e-01
3.683607183798242035e-01
3.821169277799006392e-01
3.748567061520825527e-01
3.717997707298433263e-01
3.591899121131066352e-01
3.763851738632021382e-01
3.851738632021398656e-01
3.809705769965609501e-01
3.733282384409629118e-01
3.534581581964080788e-01
3.549866259075277197e-01
3.626289644631257025e-01
3.530760412686281824e-01
3.805884600687810537e-01
3.591899121131066352e-01
3.641574321742453435e-01
3.549866259075277197e-01
3.561329766908674088e-01
3.809705769965609501e-01
3.916698509743981593e-01
3.886129155521589329e-01
3.836453954910202246e-01
3.840275124188001765e-01
3.809705769965609501e-01
3.656858998853649290e-01
3.775315246465418273e-01
3.698891860909438445e-01
3.530760412686281824e-01
3.729461215131830154e-01
3.656858998853649290e-01
3.763851738632021382e-01
3.515475735575085969e-01
3.702713030187237409e-01
3.668322506687046181e-01
3.549866259075277197e-01
3.595720290408865316e-01
3.626289644631257025e-01
3.714176538020634299e-01
3.855559801299197620e-01
3.779136415743217237e-01
3.687428353076040999e-01
3.886129155521589329e-01
3.931983186855177448e-01
3.809705769965609501e-01
3.840275124188001765e-01
3.702713030187237409e-01
3.870844478410393474e-01
3.748567061520825527e-01
3.805884600687810537e-01
3.565150936186473052e-01
3.729461215131830154e-01
3.576614444019869943e-01
3.840275124188001765e-01
3.821169277799006392e-01
3.729461215131830154e-01
3.805884600687810537e-01
3.779136415743217237e-01
3.855559801299197620e-01
3.779136415743217237e-01
3.916698509743981593e-01
3.855559801299197620e-01
3.763851738632021382e-01
3.717997707298433263e-01
3.870844478410393474e-01
3.698891860909438445e-01
3.595720290408865316e-01
3.805884600687810537e-01
3.672143675964845144e-01
3.779136415743217237e-01
3.794421092854413646e-01
3.637753152464653916e-01
3.767672907909820346e-01
3.687428353076040999e-01
3.855559801299197620e-01
3.591899121131066352e-01
3.809705769965609501e-01
3.836453954910202246e-01
3.683607183798242035e-01
3.656858998853649290e-01
3.656858998853649290e-01
3.901413832632785739e-01
3.702713030187237409e-01
3.886129155521589329e-01
3.790599923576614683e-01
3.626289644631257025e-01
3.748567061520825527e-01
3.702713030187237409e-01
3.626289644631257025e-01
3.626289644631257025e-01
3.576614444019869943e-01
3.595720290408865316e-01
3.683607183798242035e-01
3.840275124188001765e-01
3.790599923576614683e-01
3.622468475353458062e-01
3.626289644631257025e-01
3.916698509743981593e-01
3.702713030187237409e-01
3.851738632021398656e-01
3.664501337409247217e-01
3.824990447076805355e-01
3.817348108521207428e-01
3.813526939243408465e-01
3.595720290408865316e-01
3.824990447076805355e-01
3.607183798242262207e-01
3.809705769965609501e-01
3.698891860909438445e-01
3.595720290408865316e-01
3.714176538020634299e-01
3.488727550630492669e-01
3.530760412686281824e-01
3.656858998853649290e-01
3.748567061520825527e-01
3.534581581964080788e-01
3.622468475353458062e-01
3.576614444019869943e-01
3.714176538020634299e-01
3.809705769965609501e-01
3.668322506687046181e-01
3.641574321742453435e-01
3.702713030187237409e-01
3.622468475353458062e-01
3.611004967520061171e-01
3.504012227741689078e-01
3.549866259075277197e-01
3.534581581964080788e-01
3.733282384409629118e-01
3.637753152464653916e-01
3.687428353076040999e-01
3.672143675964845144e-01
3.576614444019869943e-01
3.473442873519296814e-01
3.672143675964845144e-01
3.458158196408100959e-01
3.488727550630492669e-01
3.515475735575085969e-01
3.530760412686281824e-01
3.595720290408865316e-01
3.729461215131830154e-01
3.473442873519296814e-01
3.519296904852884933e-01
3.717997707298433263e-01
3.435231180741306622e-01
3.412304165074512841e-01
3.622468475353458062e-01
3.500191058463890115e-01
3.607183798242262207e-01
3.362628964463125758e-01
3.500191058463890115e-01
3.397019487963316986e-01
3.626289644631257025e-01
3.381734810852120576e-01
3.504012227741689078e-01
3.366450133740924722e-01
3.439052350019105586e-01
3.454337027130301996e-01
3.591899121131066352e-01
3.423767672907909732e-01
3.687428353076040999e-01
3.622468475353458062e-01
3.626289644631257025e-01
3.580435613297668906e-01
3.549866259075277197e-01
3.458158196408100959e-01
3.397019487963316986e-01
3.546045089797478234e-01
3.400840657241115950e-01
3.519296904852884933e-01
3.286205578907145375e-01
3.316774933129537639e-01
3.381734810852120576e-01
3.473442873519296814e-01
3.419946503630110768e-01
3.530760412686281824e-01
3.305311425296140748e-01
3.534581581964080788e-01
3.565150936186473052e-01
3.504012227741689078e-01
3.660680168131448253e-01
3.534581581964080788e-01
3.656858998853649290e-01
3.381734810852120576e-01
3.561329766908674088e-01
3.397019487963316986e-01
3.351165456629728867e-01
3.362628964463125758e-01
3.442873519296905105e-01
3.515475735575085969e-01
3.515475735575085969e-01
3.274742071073748484e-01
3.473442873519296814e-01
3.366450133740924722e-01
3.290026748184944339e-01
3.469621704241497850e-01
3.549866259075277197e-01
3.576614444019869943e-01
3.576614444019869943e-01
3.458158196408100959e-01
3.549866259075277197e-01
3.664501337409247217e-01
3.530760412686281824e-01
3.534581581964080788e-01
3.576614444019869943e-01
3.595720290408865316e-01
3.469621704241497850e-01
3.335880779518532457e-01
3.565150936186473052e-01
3.423767672907909732e-01
3.427588842185708695e-01
3.519296904852884933e-01
3.534581581964080788e-01
3.439052350019105586e-01
3.530760412686281824e-01
3.484906381352693705e-01
3.393198318685518022e-01
3.706534199465036372e-01
3.607183798242262207e-01
3.500191058463890115e-01
3.561329766908674088e-01
3.504012227741689078e-01
3.702713030187237409e-01
3.504012227741689078e-01
3.840275124188001765e-01
3.779136415743217237e-01
3.565150936186473052e-01
3.515475735575085969e-01
3.637753152464653916e-01
3.504012227741689078e-01
3.687428353076040999e-01
3.549866259075277197e-01
3.702713030187237409e-01
3.576614444019869943e-01
3.717997707298433263e-01
3.656858998853649290e-01
3.794421092854413646e-01
3.867023309132594511e-01
3.912877340466182630e-01
4.031333588077951613e-01
4.023691249522353686e-01
3.977837218188765567e-01
4.065724111578142841e-01
3.977837218188765567e-01
3.962552541077569712e-01
4.142147497134123224e-01
4.176538020634313897e-01
4.126862820022926814e-01
4.237676729079098426e-01
4.054260603744745950e-01
4.252961406190294280e-01
4.314100114635078254e-01
4.421092854413450346e-01
4.451662208635842610e-01
4.405808177302254491e-01
4.497516239969430729e-01
4.604508979747802822e-01
4.512800917080626584e-01
4.818494459304547006e-01
4.619793656858998676e-01
4.864348490638135125e-01
4.726786396637370768e-01
4.940771876194115508e-01
5.063049293083683455e-01
4.803209782193351152e-01
4.940771876194115508e-01
4.986625907527703627e-01
4.894917844860527389e-01
4.921666029805120135e-01
5.154757355750859693e-01
5.078333970194879310e-01
5.150936186473060729e-01
5.215896064195644222e-01
5.231180741306840076e-01
5.257928926251432822e-01
5.426060374474589443e-01
5.567443637753152208e-01
5.487199082919372861e-01
5.720290408865112974e-01
5.735575085976308829e-01
5.735575085976308829e-01
5.655330531142529482e-01
5.823461979365686103e-01
5.949560565533053014e-01
5.827283148643485067e-01
5.857852502865876776e-01
6.056553305311425106e-01
5.842567825754680921e-01
5.934275888421857159e-01
6.006878104700038579e-01
5.899885364921666486e-01
5.964845242644248868e-01
6.052732136033626142e-01
6.239969430645777582e-01
6.102407336645013780e-01
6.129155521589606526e-01
6.224684753534581727e-01
6.423385555980130057e-01
6.557126480703094895e-01
6.381352693924340347e-01
6.362246847535345529e-01
6.606801681314482533e-01
6.484524264424913476e-01
6.450133740924722803e-01
6.622086358425678387e-01
6.450133740924722803e-01
6.404279709591135239e-01
6.469239587313717621e-01
6.423385555980130057e-01
6.515093618647306295e-01
6.576232327092089713e-01
6.530378295758502150e-01
6.637371035536874242e-01
6.560947649980893859e-01
6.755827283148643225e-01
6.709973251815055661e-01
6.912495223538402955e-01
6.897210546427207101e-01
6.973633931983186374e-01
7.019487963316775048e-01
6.893389377149408137e-01
6.878104700038211172e-01
6.866641192204814281e-01
6.881925869316011246e-01
7.034772640427970902e-01
6.790217806648835008e-01
6.969812762705387410e-01
6.912495223538402955e-01
6.832250668704623608e-01
6.912495223538402955e-01
6.912495223538402955e-01
6.912495223538402955e-01
6.939243408482995701e-01
6.820787160871226718e-01
6.920137562094000883e-01
6.943064577760794664e-01
6.927779900649598810e-01
6.878104700038211172e-01
6.939243408482995701e-01
6.897210546427207101e-01
6.912495223538402955e-01
7.030951471150171939e-01
7.065341994650362611e-01
7.092090179594956467e-01
7.111196025983951285e-01
6.893389377149408137e-01
6.881925869316011246e-01
6.729079098204050480e-01
6.912495223538402955e-01
6.958349254871990519e-01
6.801681314482231899e-01
6.729079098204050480e-01
6.836071837982422572e-01
6.790217806648835008e-01
6.851356515093618427e-01
6.943064577760794664e-01
6.820787160871226718e-01
6.836071837982422572e-01
6.832250668704623608e-01
6.866641192204814281e-01
6.927779900649598810e-01
6.943064577760794664e-01
6.820787160871226718e-01
6.805502483760030863e-01
6.820787160871226718e-01
6.725257928926251516e-01
6.790217806648835008e-01
6.648834543370271133e-01
6.729079098204050480e-01
6.774933129537638044e-01
6.606801681314482533e-01
6.652655712648070097e-01
6.729079098204050480e-01
6.771111960259839080e-01
6.591517004203286678e-01
6.820787160871226718e-01
6.717615590370653589e-01
6.878104700038211172e-01
6.805502483760030863e-01
6.683225066870462916e-01
6.893389377149408137e-01
6.744363775315246334e-01
6.652655712648070097e-01
6.897210546427207101e-01
6.667940389759265951e-01
6.606801681314482533e-01
6.790217806648835008e-01
6.515093618647306295e-01
6.622086358425678387e-01
6.606801681314482533e-01
6.683225066870462916e-01
6.667940389759265951e-01
6.499808941536110440e-01
6.450133740924722803e-01
6.545662972869698004e-01
6.438670233091325912e-01
6.469239587313717621e-01
6.545662972869698004e-01
6.633549866259075278e-01
6.698509743981658771e-01
6.652655712648070097e-01
6.469239587313717621e-01
6.438670233091325912e-01
6.637371035536874242e-01
6.465418418035918657e-01
6.515093618647306295e-01
6.377531524646541383e-01
6.499808941536110440e-01
6.438670233091325912e-01
6.423385555980130057e-01
6.392816201757738348e-01
6.392816201757738348e-01
6.392816201757738348e-01
6.469239587313717621e-01
6.270538784868169291e-01
6.392816201757738348e-01
6.301108139090562110e-01
6.465418418035918657e-01
6.301108139090562110e-01
6.255254107756973436e-01
6.224684753534581727e-01
6.377531524646541383e-01
6.362246847535345529e-01
6.251432938479174473e-01
6.312571646923959001e-01
6.346962170424149674e-01
6.132976690867405489e-01
6.117692013756209635e-01
6.239969430645777582e-01
6.083301490256017852e-01
6.194115399312190018e-01
5.980129919755444723e-01
6.194115399312190018e-01
6.163546045089797198e-01
6.025983951089033397e-01
6.236148261367978618e-01
6.194115399312190018e-01
6.178830722200993053e-01
6.041268628200229251e-01
5.945739396255254050e-01
6.052732136033626142e-01
6.148261367978601344e-01
5.888421857088268485e-01
5.854031333588077812e-01
5.934275888421857159e-01
6.132976690867405489e-01
5.857852502865876776e-01
5.934275888421857159e-01
6.025983951089033397e-01
5.792892625143294394e-01
5.854031333588077812e-01
5.731753916698509865e-01
5.888421857088268485e-01
5.903706534199465450e-01
5.735575085976308829e-01
5.735575085976308829e-01
5.869316010699273667e-01
5.750859763087504684e-01
5.991593427588842724e-01
5.873137179977072631e-01
5.827283148643485067e-01
5.865494841421474703e-01
5.857852502865876776e-01
5.750859763087504684e-01
5.643867023309132591e-01
5.598012991975545027e-01
5.567443637753152208e-01
5.563622468475353244e-01
5.613297669086740882e-01
5.517768437141765681e-01
5.441345051585785297e-01
5.399312189529996697e-01
5.494841421474970788e-01
5.414596866641192552e-01
5.399312189529996697e-01
5.429881543752388406e-01
5.506304929308368790e-01
5.410775697363393588e-01
5.582728314864348063e-01
5.536874283530760499e-01
5.353458158196408023e-01
5.399312189529996697e-01
5.548337791364157390e-01
5.563622468475353244e-01
5.322888803974016314e-01
5.277034772640427640e-01
5.227359572029041113e-01
5.364921666029804914e-01
5.292319449751623495e-01
5.368742835307603878e-01
5.231180741306840076e-01
5.185326709973251402e-01
5.231180741306840076e-01
5.231180741306840076e-01
5.215896064195644222e-01
5.101260985861674202e-01
5.334352311807413205e-01
5.364921666029804914e-01
5.322888803974016314e-01
5.078333970194879310e-01
5.334352311807413205e-01
5.185326709973251402e-01
5.200611387084448367e-01
5.273213603362628676e-01
5.108903324417272129e-01
5.170042032862055548e-01
5.261750095529231785e-01
5.135651509361864875e-01
5.105082155139473166e-01
4.971341230416507218e-01
5.124188001528467984e-01
4.879633167749331535e-01
5.150936186473060729e-01
4.956056553305311363e-01
5.154757355750859693e-01
4.849063813526939271e-01
5.017195261750095892e-01
5.089797478028276201e-01
5.063049293083683455e-01
4.986625907527703627e-01
4.894917844860527389e-01
4.940771876194115508e-01
5.043943446694688637e-01
5.120366832250669020e-01
5.032479938861291746e-01
5.001910584638900037e-01
4.883454337027130499e-01
5.047764615972487601e-01
4.753534581581964069e-01
4.768819258693159924e-01
4.757355750859763033e-01
5.001910584638900037e-01
4.799388612915552188e-01
4.757355750859763033e-01
4.803209782193351152e-01
4.910202521971723244e-01
4.787925105082155297e-01
4.803209782193351152e-01
4.906381352693924280e-01
5.093618647306075164e-01
4.891096675582728426e-01
4.936950706916316545e-01
4.906381352693924280e-01
5.013374092472296928e-01
4.925487199082919099e-01
4.849063813526939271e-01
4.894917844860527389e-01
4.906381352693924280e-01
4.803209782193351152e-01
4.680932365303783205e-01
4.692395873137180096e-01
4.696217042414979059e-01
4.665647688192586795e-01
4.711501719526174914e-01
4.772640427970958887e-01
4.845242644249140307e-01
4.917844860527321171e-01
4.833779136415743416e-01
4.757355750859763033e-01
4.891096675582728426e-01
4.742071073748567178e-01
4.722965227359571805e-01
4.891096675582728426e-01
4.956056553305311363e-01
4.940771876194115508e-01
4.787925105082155297e-01
4.696217042414979059e-01
4.650363011081390940e-01
4.822315628582345970e-01
4.570118456247611594e-01
4.833779136415743416e-01
4.627435995414596603e-01
4.677111196025983686e-01
4.784103935804356333e-01
4.757355750859763033e-01
4.910202521971723244e-01
4.906381352693924280e-01
4.921666029805120135e-01
4.722965227359571805e-01
4.864348490638135125e-01
4.967520061138708254e-01
4.772640427970958887e-01
4.677111196025983686e-01
4.814673290026748043e-01
4.650363011081390940e-01
4.726786396637370768e-01
4.757355750859763033e-01
4.608330149025601785e-01
4.680932365303783205e-01
4.589224302636606967e-01
4.818494459304547006e-01
4.696217042414979059e-01
4.742071073748567178e-01
4.768819258693159924e-01
4.604508979747802822e-01
4.879633167749331535e-01
4.600687810470003858e-01
4.894917844860527389e-01
4.845242644249140307e-01
4.742071073748567178e-01
4.619793656858998676e-01
4.898739014138326353e-01
4.646541841803591977e-01
4.875811998471532016e-01
4.787925105082155297e-01
4.589224302636606967e-01
4.726786396637370768e-01
4.757355750859763033e-01
4.600687810470003858e-01
4.784103935804356333e-01
4.508979747802827620e-01
4.680932365303783205e-01
4.726786396637370768e-01
4.646541841803591977e-01
4.619793656858998676e-01
4.803209782193351152e-01
4.696217042414979059e-01
4.677111196025983686e-01
4.799388612915552188e-01
4.726786396637370768e-01
4.894917844860527389e-01
4.799388612915552188e-01
4.558654948414214703e-01
4.845242644249140307e-01
4.726786396637370768e-01
4.753534581581964069e-01
4.707680550248375950e-01
4.524264424914023475e-01
4.585403133358808003e-01
4.589224302636606967e-01
4.604508979747802822e-01
4.558654948414214703e-01
4.646541841803591977e-01
4.635078333970195086e-01
4.650363011081390940e-01
4.421092854413450346e-01
4.619793656858998676e-01
4.604508979747802822e-01
4.543370271303018848e-01
4.604508979747802822e-01
4.543370271303018848e-01
4.497516239969430729e-01
4.711501719526174914e-01
4.711501719526174914e-01
4.619793656858998676e-01
4.554833779136415739e-01
4.635078333970195086e-01
4.508979747802827620e-01
4.570118456247611594e-01
4.635078333970195086e-01
4.375238823079862227e-01
4.401987008024455528e-01
4.512800917080626584e-01
4.463125716469239501e-01
4.314100114635078254e-01
4.512800917080626584e-01
4.447841039358043647e-01
4.558654948414214703e-01
4.604508979747802822e-01
4.589224302636606967e-01
4.631257164692396122e-01
4.466946885747038465e-01
4.394344669468857600e-01
4.310278945357279290e-01
4.405808177302254491e-01
4.283530760412686544e-01
4.222392051967902016e-01
4.482231562858234875e-01
4.314100114635078254e-01
4.401987008024455528e-01
4.268246083301490135e-01
4.188001528467711343e-01
4.191822697745510307e-01
4.233855559801299462e-01
4.252961406190294280e-01
4.344669468857470518e-01
4.432556362246847792e-01
4.241497898356897389e-01
4.188001528467711343e-01
4.371417653802063263e-01
4.172716851356514933e-01
4.466946885747038465e-01
4.405808177302254491e-01
4.359954145968666372e-01
4.344669468857470518e-01
4.279709591134887026e-01
4.252961406190294280e-01
4.298815437523882399e-01
4.222392051967902016e-01
4.203286205578907198e-01
4.084829957967138214e-01
4.126862820022926814e-01
4.161253343523118042e-01
4.100114635078334069e-01
4.096293465800535105e-01
4.188001528467711343e-01
4.038975926633550095e-01
4.115399312189529923e-01
4.172716851356514933e-01
4.050439434466946986e-01
4.172716851356514933e-01
4.019870080244554722e-01
4.233855559801299462e-01
4.077187619411539732e-01
4.115399312189529923e-01
4.023691249522353686e-01
4.084829957967138214e-01
3.916698509743981593e-01
3.931983186855177448e-01
3.916698509743981593e-01
3.958731371799770749e-01
3.901413832632785739e-01
4.019870080244554722e-01
4.054260603744745950e-01
4.100114635078334069e-01
3.840275124188001765e-01
4.065724111578142841e-01
3.977837218188765567e-01
3.947267863966373858e-01
4.145968666411922188e-01
4.126862820022926814e-01
4.100114635078334069e-01
3.943446694688574894e-01
3.977837218188765567e-01
4.035154757355751132e-01
3.928162017577378484e-01
4.038975926633550095e-01
3.805884600687810537e-01
3.931983186855177448e-01
3.931983186855177448e-01
3.748567061520825527e-01
3.717997707298433263e-01
3.901413832632785739e-01
3.886129155521589329e-01
3.733282384409629118e-01
3.733282384409629118e-01
3.698891860909438445e-01
3.947267863966373858e-01
3.928162017577378484e-01
3.733282384409629118e-01
3.836453954910202246e-01
3.867023309132594511e-01
3.996943064577760940e-01
3.870844478410393474e-01
3.901413832632785739e-01
3.794421092854413646e-01
3.993121895299961976e-01
3.744745892243026564e-01
3.836453954910202246e-01
3.977837218188765567e-01
3.656858998853649290e-01
3.901413832632785739e-01
3.867023309132594511e-01
3.668322506687046181e-01
3.794421092854413646e-01
3.668322506687046181e-01
3.775315246465418273e-01
3.760030569354222418e-01
3.962552541077569712e-01
3.790599923576614683e-01
3.977837218188765567e-01
3.790599923576614683e-01
3.717997707298433263e-01
3.962552541077569712e-01
3.779136415743217237e-01
3.683607183798242035e-01
3.824990447076805355e-01
3.668322506687046181e-01
3.576614444019869943e-01
3.775315246465418273e-01
3.565150936186473052e-01
3.763851738632021382e-01
3.561329766908674088e-01
3.867023309132594511e-01
3.691249522353840518e-01
3.817348108521207428e-01
3.855559801299197620e-01
3.897592663354986775e-01
3.870844478410393474e-01
3.714176538020634299e-01
3.733282384409629118e-01
3.687428353076040999e-01
3.744745892243026564e-01
3.809705769965609501e-01
3.805884600687810537e-01
3.580435613297668906e-01
3.717997707298433263e-01
3.809705769965609501e-01
3.702713030187237409e-01
3.614826136797860134e-01
3.580435613297668906e-01
3.530760412686281824e-01
3.611004967520061171e-01
3.626289644631257025e-01
3.672143675964845144e-01
3.763851738632021382e-01
3.565150936186473052e-01
3.821169277799006392e-01
3.637753152464653916e-01
3.649216660298051362e-01
3.851738632021398656e-01
3.855559801299197620e-01
3.760030569354222418e-01
3.717997707298433263e-01
3.687428353076040999e-01
3.779136415743217237e-01
3.576614444019869943e-01
3.717997707298433263e-01
3.779136415743217237e-01
3.611004967520061171e-01
3.641574321742453435e-01
3.515475735575085969e-01
3.473442873519296814e-01
3.504012227741689078e-01
3.488727550630492669e-01
3.534581581964080788e-01
3.561329766908674088e-01
3.668322506687046181e-01
3.794421092854413646e-01
3.821169277799006392e-01
3.809705769965609501e-01
3.565150936186473052e-01
3.683607183798242035e-01
3.473442873519296814e-01
3.561329766908674088e-01
3.656858998853649290e-01
3.641574321742453435e-01
3.576614444019869943e-01
3.641574321742453435e-01
3.504012227741689078e-01
3.714176538020634299e-01
3.530760412686281824e-01
3.775315246465418273e-01
3.668322506687046181e-01
3.439052350019105586e-01
3.622468475353458062e-01
3.763851738632021382e-01
3.687428353076040999e-01
3.744745892243026564e-01
3.687428353076040999e-01
3.630110813909055989e-01
3.824990447076805355e-01
3.809705769965609501e-01
3.549866259075277197e-01
3.683607183798242035e-01
3.611004967520061171e-01
3.580435613297668906e-01
3.668322506687046181e-01
3.656858998853649290e-01
3.458158196408100959e-01
3.484906381352693705e-01
3.488727550630492669e-01
3.641574321742453435e-01
3.729461215131830154e-01
3.515475735575085969e-01
3.656858998853649290e-01
3.515475735575085969e-01
3.637753152464653916e-01
3.626289644631257025e-01
3.729461215131830154e-01
3.790599923576614683e-01
3.626289644631257025e-01
3.580435613297668906e-01
3.534581581964080788e-01
3.626289644631257025e-01
3.561329766908674088e-01
3.622468475353458062e-01
3.733282384409629118e-01
3.504012227741689078e-01
3.744745892243026564e-01
3.675964845242644108e-01
3.641574321742453435e-01
3.565150936186473052e-01
3.763851738632021382e-01
3.534581581964080788e-01
3.607183798242262207e-01
3.565150936186473052e-01
3.744745892243026564e-01
3.591899121131066352e-01
3.733282384409629118e-01
3.672143675964845144e-01
3.794421092854413646e-01
3.763851738632021382e-01
3.794421092854413646e-01
3.687428353076040999e-01
3.626289644631257025e-01
3.672143675964845144e-01
3.515475735575085969e-01
3.488727550630492669e-01
3.469621704241497850e-01
3.622468475353458062e-01
3.668322506687046181e-01
3.698891860909438445e-01
3.672143675964845144e-01
3.549866259075277197e-01
3.710355368742835336e-01
3.611004967520061171e-01
3.622468475353458062e-01
3.794421092854413646e-01
3.717997707298433263e-01
3.595720290408865316e-01
3.576614444019869943e-01
3.622468475353458062e-01
3.580435613297668906e-01
3.565150936186473052e-01
3.668322506687046181e-01
3.611004967520061171e-01
3.580435613297668906e-01
3.641574321742453435e-01
3.500191058463890115e-01
3.504012227741689078e-01
3.591899121131066352e-01
3.473442873519296814e-01
3.439052350019105586e-01
3.702713030187237409e-01
3.714176538020634299e-01
3.500191058463890115e-01
3.580435613297668906e-01
3.565150936186473052e-01
3.668322506687046181e-01
3.500191058463890115e-01
3.580435613297668906e-01
3.576614444019869943e-01
3.622468475353458062e-01
3.591899121131066352e-01
3.717997707298433263e-01
3.656858998853649290e-01
3.656858998853649290e-01
3.580435613297668906e-01
3.423767672907909732e-01
3.393198318685518022e-01
3.458158196408100959e-01
3.580435613297668906e-01
3.504012227741689078e-01
3.442873519296905105e-01
3.530760412686281824e-01
3.546045089797478234e-01
3.653037829575850326e-01
3.744745892243026564e-01
3.626289644631257025e-01
3.591899121131066352e-01
3.656858998853649290e-01
3.733282384409629118e-01
3.622468475353458062e-01
3.737103553687428081e-01
3.530760412686281824e-01
3.549866259075277197e-01
3.519296904852884933e-01
3.653037829575850326e-01
3.637753152464653916e-01
3.332059610240733494e-01
3.549866259075277197e-01
3.549866259075277197e-01
3.672143675964845144e-01
3.473442873519296814e-01
3.519296904852884933e-01
3.473442873519296814e-01
3.668322506687046181e-01
3.611004967520061171e-01
3.760030569354222418e-01
3.519296904852884933e-01
3.775315246465418273e-01
3.626289644631257025e-01
3.565150936186473052e-01
3.714176538020634299e-01
3.519296904852884933e-01
3.565150936186473052e-01
3.656858998853649290e-01
3.626289644631257025e-01
3.530760412686281824e-01
3.408482995796713877e-01
3.672143675964845144e-01
3.565150936186473052e-01
3.549866259075277197e-01
3.717997707298433263e-01
3.672143675964845144e-01
3.473442873519296814e-01
3.534581581964080788e-01
3.530760412686281824e-01
3.668322506687046181e-01
3.626289644631257025e-01
3.565150936186473052e-01
3.714176538020634299e-01
3.717997707298433263e-01
3.534581581964080788e-01
3.687428353076040999e-01
3.668322506687046181e-01
3.565150936186473052e-01
3.549866259075277197e-01
3.408482995796713877e-01
3.614826136797860134e-01
3.412304165074512841e-01
3.622468475353458062e-01
3.442873519296905105e-01
3.546045089797478234e-01
3.484906381352693705e-01
3.744745892243026564e-01
3.565150936186473052e-01
3.458158196408100959e-01
3.591899121131066352e-01
3.641574321742453435e-01
3.641574321742453435e-01
3.580435613297668906e-01
3.591899121131066352e-01
3.546045089797478234e-01
3.397019487963316986e-01
3.397019487963316986e-01
3.488727550630492669e-01
3.653037829575850326e-01
3.591899121131066352e-01
3.637753152464653916e-01
3.591899121131066352e-01
3.607183798242262207e-01
3.484906381352693705e-01
3.515475735575085969e-01
3.446694688574704069e-01
3.565150936186473052e-01
3.523118074130683897e-01
3.412304165074512841e-01
3.454337027130301996e-01
3.530760412686281824e-01
3.534581581964080788e-01
3.637753152464653916e-01
3.580435613297668906e-01
3.500191058463890115e-01
3.653037829575850326e-01
3.488727550630492669e-01
3.561329766908674088e-01
3.454337027130301996e-01
3.504012227741689078e-01
3.484906381352693705e-01
3.351165456629728867e-01
3.458158196408100959e-01
3.546045089797478234e-01
3.572793274742070979e-01
3.351165456629728867e-01
3.488727550630492669e-01
3.641574321742453435e-01
3.439052350019105586e-01
3.488727550630492669e-01
3.607183798242262207e-01
3.442873519296905105e-01
3.626289644631257025e-01
3.519296904852884933e-01
3.641574321742453435e-01
3.427588842185708695e-01
3.366450133740924722e-01
3.576614444019869943e-01
3.412304165074512841e-01
3.546045089797478234e-01
3.351165456629728867e-01
3.381734810852120576e-01
3.553687428353076161e-01
3.397019487963316986e-01
3.534581581964080788e-01
3.366450133740924722e-01
3.366450133740924722e-01
3.408482995796713877e-01
3.622468475353458062e-01
3.377913641574321613e-01
3.504012227741689078e-01
3.427588842185708695e-01
3.408482995796713877e-01
3.381734810852120576e-01
3.580435613297668906e-01
3.255636224684753666e-01
3.244172716851356775e-01
3.347344287351929903e-01
3.423767672907909732e-01
3.370271303018723685e-01
3.244172716851356775e-01
3.167749331295376392e-01
3.209782193351165547e-01
3.397019487963316986e-01
3.385555980129919540e-01
3.377913641574321613e-01
3.362628964463125758e-01
3.397019487963316986e-01
3.377913641574321613e-01
3.202139854795567619e-01
3.335880779518532457e-01
3.473442873519296814e-01
3.259457393962552629e-01
3.347344287351929903e-01
3.259457393962552629e-01
3.439052350019105586e-01
3.320596102407336603e-01
3.347344287351929903e-01
3.079862437905999117e-01
3.244172716851356775e-01
3.225066870462361401e-01
3.305311425296140748e-01
3.030187237294612035e-01
3.320596102407336603e-01
3.297669086740542821e-01
3.397019487963316986e-01
3.458158196408100959e-01
3.179212839128773282e-01
3.366450133740924722e-01
3.270920901795949520e-01
3.186855177684371210e-01
3.225066870462361401e-01
3.335880779518532457e-01
3.454337027130301996e-01
3.381734810852120576e-01
3.408482995796713877e-01
3.183034008406572246e-01
3.198318685517768656e-01
3.228888039740160365e-01
3.194497516239969692e-01
3.270920901795949520e-01
3.255636224684753666e-01
3.320596102407336603e-01
3.198318685517768656e-01
3.351165456629728867e-01
3.427588842185708695e-01
3.305311425296140748e-01
3.454337027130301996e-01
3.412304165074512841e-01
3.397019487963316986e-01
3.427588842185708695e-01
3.412304165074512841e-01
3.427588842185708695e-01
3.274742071073748484e-01
3.244172716851356775e-01
3.236530378295758292e-01
3.381734810852120576e-01
3.335880779518532457e-01
3.221245701184562438e-01
3.332059610240733494e-01
3.393198318685518022e-01
3.244172716851356775e-01
3.397019487963316986e-01
3.500191058463890115e-01
3.412304165074512841e-01
3.565150936186473052e-01
3.393198318685518022e-01
3.549866259075277197e-01
3.397019487963316986e-01
3.469621704241497850e-01
3.534581581964080788e-01
3.656858998853649290e-01
3.698891860909438445e-01
3.698891860909438445e-01
3.779136415743217237e-01
3.458158196408100959e-01
3.500191058463890115e-01
3.821169277799006392e-01
3.656858998853649290e-01
3.733282384409629118e-01
3.867023309132594511e-01
3.821169277799006392e-01
3.760030569354222418e-01
3.947267863966373858e-01
3.805884600687810537e-01
3.867023309132594511e-01
4.191822697745510307e-01
3.916698509743981593e-01
4.222392051967902016e-01
4.145968666411922188e-01
4.161253343523118042e-01
4.314100114635078254e-01
4.325563622468475145e-01
4.218570882690103052e-01
4.310278945357279290e-01
4.390523500191058637e-01
4.497516239969430729e-01
4.314100114635078254e-01
4.390523500191058637e-01
4.524264424914023475e-01
4.405808177302254491e-01
4.711501719526174914e-01
4.604508979747802822e-01
4.589224302636606967e-01
4.852884982804738234e-01
4.971341230416507218e-01
4.864348490638135125e-01
5.028658769583492782e-01
5.139472678639663838e-01
5.078333970194879310e-01
5.215896064195644222e-01
5.200611387084448367e-01
5.414596866641192552e-01
5.246465418418035931e-01
5.384027512418799732e-01
5.384027512418799732e-01
5.231180741306840076e-01
5.307604126862820459e-01
5.349636988918609060e-01
5.582728314864348063e-01
5.628582346197936737e-01
5.735575085976308829e-01
5.762323270920901574e-01
5.578907145586549099e-01
5.705005731753917120e-01
5.934275888421857159e-01
6.006878104700038579e-01
6.083301490256017852e-01
5.934275888421857159e-01
5.888421857088268485e-01
6.087122659533816815e-01
6.209400076423385872e-01
6.113870844478410671e-01
6.056553305311425106e-01
6.239969430645777582e-01
6.098586167367214816e-01
6.255254107756973436e-01
6.255254107756973436e-01
6.373710355368742420e-01
6.392816201757738348e-01
6.423385555980130057e-01
6.484524264424913476e-01
6.392816201757738348e-01
6.331677493312953819e-01
6.599159342758884605e-01
6.652655712648070097e-01
6.484524264424913476e-01
6.530378295758502150e-01
6.694688574703859807e-01
6.713794421092854625e-01
