3.943446694688574894e-01
3.943446694688574894e-01
3.943446694688574894e-01
3.993121895299961976e-01
3.993121895299961976e-01
3.847917462743599692e-01
3.847917462743599692e-01
3.847917462743599692e-01
3.828811616354604319e-01
3.828811616354604319e-01
3.851738632021398656e-01
3.851738632021398656e-01
3.851738632021398656e-01
3.878486816965991402e-01
3.878486816965991402e-01
3.794421092854413646e-01
3.794421092854413646e-01
3.794421092854413646e-01
3.740924722965227600e-01
3.740924722965227600e-01
3.668322506687046181e-01
3.668322506687046181e-01
3.668322506687046181e-01
3.805884600687810537e-01
3.805884600687810537e-01
3.714176538020634299e-01
3.714176538020634299e-01
3.714176538020634299e-01
3.653037829575850326e-01
3.653037829575850326e-01
3.645395491020252399e-01
3.645395491020252399e-01
3.645395491020252399e-01
3.465800534963698887e-01
3.465800534963698887e-01
3.603362628964463243e-01
3.603362628964463243e-01
3.603362628964463243e-01
3.481085212074894741e-01
3.481085212074894741e-01
3.351165456629728867e-01
3.351165456629728867e-01
3.351165456629728867e-01
3.473442873519296814e-01
3.473442873519296814e-01
3.293847917462743857e-01
3.293847917462743857e-01
3.293847917462743857e-01
3.244172716851356775e-01
3.244172716851356775e-01
3.381734810852120576e-01
3.381734810852120576e-01
3.381734810852120576e-01
3.213603362628964510e-01
3.213603362628964510e-01
3.267099732518150557e-01
3.267099732518150557e-01
3.267099732518150557e-01
3.282384409629346411e-01
3.282384409629346411e-01
3.179212839128773282e-01
3.179212839128773282e-01
3.179212839128773282e-01
3.079862437905999117e-01
3.079862437905999117e-01
2.972869698127627025e-01
2.972869698127627025e-01
2.972869698127627025e-01
3.076041268628200154e-01
3.076041268628200154e-01
2.972869698127627025e-01
2.972869698127627025e-01
2.972869698127627025e-01
2.995796713794421362e-01
2.995796713794421362e-01
2.877340466182651824e-01
2.877340466182651824e-01
2.877340466182651824e-01
2.850592281238059078e-01
2.850592281238059078e-01
2.663354986625907639e-01
2.663354986625907639e-01
2.663354986625907639e-01
2.724493695070691612e-01
2.724493695070691612e-01
2.690103171570500384e-01
2.690103171570500384e-01
2.690103171570500384e-01
2.732136033626289540e-01
2.732136033626289540e-01
2.709209017959495758e-01
2.709209017959495758e-01
2.709209017959495758e-01
2.533435231180741209e-01
2.533435231180741209e-01
2.617500955292319520e-01
2.617500955292319520e-01
2.617500955292319520e-01
2.586931601069927256e-01
2.586931601069927256e-01
2.518150554069545355e-01
2.518150554069545355e-01
2.518150554069545355e-01
2.399694306457776094e-01
2.399694306457776094e-01
2.281238058846006833e-01
2.281238058846006833e-01
2.281238058846006833e-01
2.235384027512418714e-01
2.235384027512418714e-01
2.200993504012227764e-01
2.200993504012227764e-01
2.200993504012227764e-01
2.307986243790599856e-01
2.307986243790599856e-01
2.231562858234619751e-01
2.231562858234619751e-01
2.231562858234619751e-01
2.185708826901031632e-01
2.185708826901031632e-01
2.246847535345815883e-01
2.246847535345815883e-01
2.246847535345815883e-01
2.158960641956438609e-01
2.158960641956438609e-01
2.158960641956438609e-01
2.158960641956438609e-01
2.158960641956438609e-01
2.051967902178066516e-01
2.051967902178066516e-01
2.002292701566679434e-01
2.002292701566679434e-01
2.002292701566679434e-01
2.128391287734046622e-01
2.128391287734046622e-01
2.055789071455865480e-01
2.055789071455865480e-01
2.055789071455865480e-01
1.918226977455101123e-01
1.918226977455101123e-01
2.009935040122277361e-01
2.009935040122277361e-01
2.009935040122277361e-01
2.032862055789071420e-01
2.032862055789071420e-01
2.051967902178066516e-01
2.051967902178066516e-01
2.051967902178066516e-01
1.990829193733282265e-01
1.990829193733282265e-01
1.929690485288498292e-01
1.929690485288498292e-01
1.929690485288498292e-01
2.002292701566679434e-01
2.002292701566679434e-01
1.906763469621704232e-01
1.906763469621704232e-01
1.906763469621704232e-01
1.799770729843332140e-01
1.799770729843332140e-01
1.975544516622086411e-01
1.975544516622086411e-01
1.971723347344287447e-01
1.971723347344287447e-01
1.971723347344287447e-01
1.742453190676346853e-01
1.742453190676346853e-01
1.914405808177302160e-01
1.914405808177302160e-01
1.914405808177302160e-01
1.818876576232326958e-01
1.818876576232326958e-01
1.696599159342759011e-01
1.696599159342759011e-01
1.696599159342759011e-01
1.830340084065724127e-01
1.830340084065724127e-01
1.799770729843332140e-01
1.799770729843332140e-01
1.799770729843332140e-01
1.883836453954910173e-01
1.883836453954910173e-01
1.688956820787160806e-01
1.688956820787160806e-01
1.688956820787160806e-01
1.692777990064959770e-01
1.692777990064959770e-01
1.685135651509361843e-01
1.685135651509361843e-01
1.685135651509361843e-01
1.650745128009170892e-01
1.650745128009170892e-01
1.639281620175773724e-01
1.639281620175773724e-01
1.639281620175773724e-01
1.685135651509361843e-01
1.685135651509361843e-01
1.593427588842185605e-01
1.593427588842185605e-01
1.593427588842185605e-01
1.669850974398165711e-01
1.669850974398165711e-01
1.761559037065341948e-01
1.761559037065341948e-01
1.761559037065341948e-01
1.555215896064195691e-01
1.555215896064195691e-01
1.555215896064195691e-01
1.555215896064195691e-01
1.555215896064195691e-01
1.623996943064577869e-01
1.623996943064577869e-01
1.719526175009552793e-01
1.719526175009552793e-01
1.719526175009552793e-01
1.539931218952999559e-01
1.539931218952999559e-01
1.551394726786396727e-01
1.551394726786396727e-01
1.551394726786396727e-01
1.578142911730989750e-01
1.578142911730989750e-01
1.509361864730607572e-01
1.509361864730607572e-01
1.509361864730607572e-01
1.643102789453572687e-01
1.643102789453572687e-01
1.566679403897592582e-01
1.566679403897592582e-01
1.566679403897592582e-01
1.585785250286587678e-01
1.585785250286587678e-01
1.528467711119602668e-01
1.528467711119602668e-01
1.528467711119602668e-01
1.551394726786396727e-01
1.551394726786396727e-01
1.520825372564004463e-01
1.520825372564004463e-01
1.520825372564004463e-01
1.482613679786014549e-01
1.482613679786014549e-01
1.620175773786778628e-01
1.620175773786778628e-01
1.620175773786778628e-01
1.555215896064195691e-01
1.555215896064195691e-01
1.440580817730225394e-01
1.440580817730225394e-01
1.440580817730225394e-01
1.444401987008024357e-01
1.444401987008024357e-01
1.406190294230034443e-01
1.406190294230034443e-01
1.406190294230034443e-01
1.471150171952617380e-01
1.471150171952617380e-01
1.543752388230798522e-01
1.543752388230798522e-01
1.543752388230798522e-01
1.406190294230034443e-01
1.406190294230034443e-01
1.490256018341612476e-01
1.490256018341612476e-01
1.490256018341612476e-01
1.448223156285823598e-01
1.448223156285823598e-01
1.371799770729843215e-01
1.371799770729843215e-01
1.371799770729843215e-01
1.524646541841803704e-01
1.524646541841803704e-01
1.417653802063431334e-01
1.417653802063431334e-01
1.417653802063431334e-01
1.375620940007642456e-01
1.375620940007642456e-01
1.459686664119220489e-01
1.459686664119220489e-01
1.459686664119220489e-01
1.471150171952617380e-01
1.471150171952617380e-01
1.299197554451662073e-01
1.299197554451662073e-01
1.299197554451662073e-01
1.287734046618265182e-01
1.287734046618265182e-01
1.291555215896064146e-01
1.291555215896064146e-01
1.291555215896064146e-01
1.295376385173863110e-01
1.295376385173863110e-01
1.287734046618265182e-01
1.287734046618265182e-01
1.287734046618265182e-01
1.478792510508215585e-01
1.478792510508215585e-01
1.241880015284677063e-01
1.241880015284677063e-01
1.241880015284677063e-01
1.253343523118074232e-01
1.253343523118074232e-01
1.406190294230034443e-01
1.406190294230034443e-01
1.406190294230034443e-01
1.283912877340466219e-01
1.283912877340466219e-01
1.260985861673672159e-01
1.260985861673672159e-01
1.260985861673672159e-01
1.203668322506687011e-01
1.203668322506687011e-01
1.333588077951853301e-01
1.333588077951853301e-01
1.333588077951853301e-01
1.352693924340848397e-01
1.352693924340848397e-01
1.341230416507451229e-01
1.341230416507451229e-01
1.341230416507451229e-01
1.348872755063049156e-01
1.348872755063049156e-01
1.322124570118456133e-01
1.322124570118456133e-01
1.322124570118456133e-01
1.345051585785250192e-01
1.345051585785250192e-01
1.291555215896064146e-01
1.291555215896064146e-01
1.291555215896064146e-01
1.303018723729461315e-01
1.303018723729461315e-01
1.165456629728696958e-01
1.165456629728696958e-01
1.165456629728696958e-01
1.142529614061902898e-01
1.142529614061902898e-01
1.333588077951853301e-01
1.333588077951853301e-01
1.333588077951853301e-01
1.280091708062667255e-01
1.280091708062667255e-01
1.138708444784103935e-01
1.138708444784103935e-01
1.138708444784103935e-01
1.127244936950706905e-01
1.127244936950706905e-01
1.157814291173099031e-01
1.157814291173099031e-01
1.157814291173099031e-01
1.260985861673672159e-01
1.260985861673672159e-01
1.127244936950706905e-01
1.127244936950706905e-01
1.127244936950706905e-01
1.184562476117692054e-01
1.184562476117692054e-01
1.299197554451662073e-01
1.299197554451662073e-01
1.299197554451662073e-01
1.127244936950706905e-01
1.127244936950706905e-01
1.131066106228505869e-01
1.131066106228505869e-01
1.131066106228505869e-01
1.115781429117309875e-01
1.115781429117309875e-01
1.173098968284295024e-01
1.173098968284295024e-01
1.196025983951089083e-01
1.196025983951089083e-01
1.196025983951089083e-01
1.089033244172716852e-01
1.089033244172716852e-01
1.111960259839510912e-01
1.111960259839510912e-01
1.111960259839510912e-01
1.054642720672525763e-01
1.054642720672525763e-01
1.215131830340084040e-01
1.215131830340084040e-01
1.215131830340084040e-01
1.111960259839510912e-01
1.111960259839510912e-01
1.211310661062285077e-01
1.211310661062285077e-01
1.211310661062285077e-01
1.283912877340466219e-01
1.283912877340466219e-01
1.203668322506687011e-01
1.203668322506687011e-01
1.203668322506687011e-01
1.115781429117309875e-01
1.115781429117309875e-01
1.199847153228888047e-01
1.199847153228888047e-01
1.199847153228888047e-01
1.134887275506304971e-01
1.134887275506304971e-01
1.207489491784486113e-01
1.207489491784486113e-01
1.207489491784486113e-01
1.283912877340466219e-01
1.283912877340466219e-01
1.173098968284295024e-01
1.173098968284295024e-01
1.173098968284295024e-01
1.069927397783721756e-01
1.069927397783721756e-01
1.157814291173099031e-01
1.157814291173099031e-01
1.157814291173099031e-01
1.272449369507069050e-01
1.272449369507069050e-01
1.215131830340084040e-01
1.215131830340084040e-01
1.215131830340084040e-01
1.264807030951471123e-01
1.264807030951471123e-01
1.318303400840657169e-01
1.318303400840657169e-01
1.318303400840657169e-01
1.379442109285441420e-01
1.379442109285441420e-01
1.322124570118456133e-01
1.322124570118456133e-01
1.322124570118456133e-01
1.371799770729843215e-01
1.371799770729843215e-01
1.532288880397401631e-01
1.532288880397401631e-01
1.532288880397401631e-01
1.673672143675964952e-01
1.673672143675964952e-01
1.601069927397783810e-01
1.601069927397783810e-01
1.601069927397783810e-01
1.704241497898356938e-01
1.704241497898356938e-01
1.964081008788689242e-01
1.964081008788689242e-01
1.964081008788689242e-01
2.094000764233855671e-01
2.094000764233855671e-01
2.071073748567061612e-01
2.071073748567061612e-01
2.071073748567061612e-01
2.277416889568207869e-01
2.277416889568207869e-01
2.479938861291555163e-01
2.479938861291555163e-01
2.479938861291555163e-01
2.434084829957967044e-01
2.434084829957967044e-01
2.701566679403897830e-01
2.701566679403897830e-01
2.701566679403897830e-01
2.636606801681314338e-01
2.636606801681314338e-01
2.808559419182269923e-01
2.808559419182269923e-01
2.808559419182269923e-01
3.045471914405808445e-01
3.045471914405808445e-01
3.087504776461597045e-01
3.087504776461597045e-01
3.087504776461597045e-01
3.106610622850592418e-01
3.106610622850592418e-01
3.221245701184562438e-01
3.221245701184562438e-01
3.221245701184562438e-01
3.290026748184944339e-01
3.290026748184944339e-01
3.473442873519296814e-01
3.473442873519296814e-01
3.473442873519296814e-01
3.458158196408100959e-01
3.458158196408100959e-01
3.561329766908674088e-01
3.561329766908674088e-01
3.561329766908674088e-01
3.821169277799006392e-01
3.821169277799006392e-01
3.767672907909820346e-01
3.767672907909820346e-01
3.767672907909820346e-01
3.836453954910202246e-01
3.836453954910202246e-01
3.931983186855177448e-01
3.931983186855177448e-01
3.931983186855177448e-01
3.920519679021780557e-01
3.920519679021780557e-01
4.016048910966755758e-01
4.016048910966755758e-01
4.016048910966755758e-01
4.046618265189148023e-01
4.046618265189148023e-01
4.123041650745127851e-01
4.123041650745127851e-01
4.123041650745127851e-01
4.061902942300343877e-01
4.061902942300343877e-01
4.233855559801299462e-01
4.233855559801299462e-01
4.233855559801299462e-01
4.230034390523499943e-01
4.230034390523499943e-01
4.207107374856706161e-01
4.207107374856706161e-01
4.207107374856706161e-01
4.195643867023309270e-01
4.195643867023309270e-01
4.379059992357661191e-01
4.379059992357661191e-01
4.379059992357661191e-01
4.344669468857470518e-01
4.344669468857470518e-01
4.191822697745510307e-01
4.191822697745510307e-01
4.191822697745510307e-01
4.352311807413068445e-01
4.352311807413068445e-01
4.249140236912495316e-01
4.249140236912495316e-01
4.249140236912495316e-01
4.294994268246083435e-01
4.294994268246083435e-01
4.294994268246083435e-01
4.294994268246083435e-01
4.294994268246083435e-01
4.210928544134505125e-01
4.210928544134505125e-01
4.264424914023691171e-01
4.264424914023691171e-01
4.264424914023691171e-01
4.252961406190294280e-01
4.252961406190294280e-01
4.428735192969048273e-01
4.428735192969048273e-01
4.428735192969048273e-01
4.363775315246465336e-01
4.363775315246465336e-01
4.428735192969048273e-01
4.428735192969048273e-01
4.428735192969048273e-01
4.237676729079098426e-01
4.237676729079098426e-01
4.371417653802063263e-01
4.371417653802063263e-01
4.371417653802063263e-01
4.340848299579671554e-01
4.340848299579671554e-01
4.367596484524264300e-01
4.367596484524264300e-01
4.367596484524264300e-01
4.134505158578525297e-01
4.134505158578525297e-01
4.157432174245319079e-01
4.157432174245319079e-01
4.157432174245319079e-01
4.138326327856324260e-01
4.138326327856324260e-01
4.161253343523118042e-01
4.161253343523118042e-01
4.161253343523118042e-01
4.130683989300725778e-01
4.130683989300725778e-01
4.130683989300725778e-01
4.130683989300725778e-01
4.138326327856324260e-01
4.138326327856324260e-01
4.138326327856324260e-01
4.111578142911730960e-01
4.111578142911730960e-01
4.008406572411157831e-01
4.008406572411157831e-01
4.008406572411157831e-01
4.084829957967138214e-01
4.084829957967138214e-01
4.123041650745127851e-01
4.123041650745127851e-01
4.123041650745127851e-01
4.008406572411157831e-01
4.008406572411157831e-01
4.077187619411539732e-01
4.077187619411539732e-01
4.077187619411539732e-01
3.985479556744364049e-01
3.985479556744364049e-01
3.928162017577378484e-01
3.928162017577378484e-01
3.928162017577378484e-01
3.970194879633167639e-01
3.970194879633167639e-01
3.970194879633167639e-01
3.970194879633167639e-01
3.970194879633167639e-01
3.931983186855177448e-01
3.931983186855177448e-01
3.977837218188765567e-01
3.977837218188765567e-01
3.977837218188765567e-01
3.802063431410011574e-01
3.802063431410011574e-01
3.702713030187237409e-01
3.702713030187237409e-01
3.702713030187237409e-01
3.660680168131448253e-01
3.660680168131448253e-01
3.637753152464653916e-01
3.637753152464653916e-01
3.637753152464653916e-01
3.729461215131830154e-01
3.729461215131830154e-01
3.653037829575850326e-01
3.653037829575850326e-01
3.653037829575850326e-01
3.786778754298815164e-01
3.786778754298815164e-01
3.733282384409629118e-01
3.733282384409629118e-01
3.733282384409629118e-01
3.687428353076040999e-01
3.687428353076040999e-01
3.572793274742070979e-01
3.572793274742070979e-01
3.572793274742070979e-01
3.393198318685518022e-01
3.393198318685518022e-01
3.515475735575085969e-01
3.515475735575085969e-01
3.515475735575085969e-01
3.412304165074512841e-01
3.412304165074512841e-01
3.500191058463890115e-01
3.500191058463890115e-01
3.500191058463890115e-01
3.351165456629728867e-01
3.351165456629728867e-01
3.320596102407336603e-01
3.320596102407336603e-01
3.320596102407336603e-01
3.301490256018341785e-01
3.301490256018341785e-01
3.194497516239969692e-01
3.194497516239969692e-01
3.194497516239969692e-01
3.106610622850592418e-01
3.106610622850592418e-01
3.152464654184180537e-01
3.152464654184180537e-01
3.152464654184180537e-01
3.072220099350401190e-01
3.072220099350401190e-01
2.988154375238822880e-01
2.988154375238822880e-01
2.988154375238822880e-01
3.141001146350783091e-01
3.141001146350783091e-01
3.026366068016813071e-01
3.026366068016813071e-01
3.026366068016813071e-01
2.892625143293847678e-01
2.892625143293847678e-01
2.846771111960260114e-01
2.846771111960260114e-01
2.846771111960260114e-01
2.850592281238059078e-01
2.850592281238059078e-01
2.755063049293083877e-01
2.755063049293083877e-01
2.755063049293083877e-01
2.751241880015284913e-01
2.751241880015284913e-01
2.835307604126862668e-01
2.835307604126862668e-01
2.835307604126862668e-01
2.636606801681314338e-01
2.636606801681314338e-01
2.705387848681696794e-01
2.705387848681696794e-01
2.705387848681696794e-01
2.544898739014138100e-01
2.544898739014138100e-01
2.426442491402369117e-01
2.426442491402369117e-01
2.426442491402369117e-01
2.414978983568972226e-01
2.414978983568972226e-01
2.529614061902942246e-01
2.529614061902942246e-01
2.529614061902942246e-01
2.380588460068780998e-01
2.380588460068780998e-01
2.552541077569736583e-01
2.552541077569736583e-01
2.552541077569736583e-01
2.353840275124187975e-01
2.353840275124187975e-01
2.434084829957967044e-01
2.434084829957967044e-01
2.434084829957967044e-01
2.365303782957585144e-01
2.365303782957585144e-01
2.285059228123805797e-01
2.285059228123805797e-01
2.285059228123805797e-01
2.208635842567825691e-01
2.208635842567825691e-01
2.227741688956820787e-01
2.227741688956820787e-01
2.227741688956820787e-01
2.277416889568207869e-01
2.277416889568207869e-01
2.189529996178830595e-01
2.189529996178830595e-01
2.189529996178830595e-01
2.128391287734046622e-01
2.128391287734046622e-01
2.067252579289262648e-01
2.067252579289262648e-01
2.067252579289262648e-01
2.139854795567443513e-01
2.139854795567443513e-01
2.185708826901031632e-01
2.185708826901031632e-01
2.185708826901031632e-01
2.094000764233855671e-01
2.094000764233855671e-01
2.120748949178448695e-01
2.120748949178448695e-01
2.120748949178448695e-01
1.994650363011081506e-01
1.994650363011081506e-01
2.025219717233473493e-01
2.025219717233473493e-01
2.025219717233473493e-01
1.910584638899503196e-01
1.910584638899503196e-01
1.994650363011081506e-01
1.994650363011081506e-01
1.994650363011081506e-01
1.964081008788689242e-01
1.964081008788689242e-01
1.811234237676729031e-01
1.811234237676729031e-01
1.811234237676729031e-01
1.887657623232709136e-01
1.887657623232709136e-01
1.773022544898739117e-01
1.773022544898739117e-01
1.773022544898739117e-01
1.799770729843332140e-01
1.799770729843332140e-01
1.975544516622086411e-01
1.975544516622086411e-01
1.975544516622086411e-01
1.753916698509744021e-01
1.753916698509744021e-01
1.773022544898739117e-01
1.773022544898739117e-01
1.773022544898739117e-01
1.769201375620939876e-01
1.769201375620939876e-01
1.761559037065341948e-01
1.761559037065341948e-01
1.761559037065341948e-01
1.704241497898356938e-01
1.704241497898356938e-01
1.784486052732136008e-01
1.784486052732136008e-01
1.784486052732136008e-01
1.818876576232326958e-01
1.818876576232326958e-01
1.776843714176538080e-01
1.776843714176538080e-01
1.845624761176920259e-01
1.845624761176920259e-01
1.845624761176920259e-01
1.761559037065341948e-01
1.761559037065341948e-01
1.734810852120748925e-01
1.734810852120748925e-01
1.734810852120748925e-01
1.604891096675582773e-01
1.604891096675582773e-01
1.616354604508979664e-01
1.616354604508979664e-01
1.616354604508979664e-01
1.570500573175391545e-01
1.570500573175391545e-01
1.662208635842567783e-01
1.662208635842567783e-01
1.662208635842567783e-01
1.608712265953381737e-01
1.608712265953381737e-01
1.746274359954146094e-01
1.746274359954146094e-01
1.746274359954146094e-01
1.643102789453572687e-01
1.643102789453572687e-01
1.681314482231562879e-01
1.681314482231562879e-01
1.681314482231562879e-01
1.723347344287352034e-01
1.723347344287352034e-01
1.551394726786396727e-01
1.551394726786396727e-01
1.551394726786396727e-01
1.497898356897210681e-01
1.497898356897210681e-01
1.585785250286587678e-01
1.585785250286587678e-01
1.585785250286587678e-01
1.532288880397401631e-01
1.532288880397401631e-01
1.711883836453954866e-01
1.711883836453954866e-01
1.711883836453954866e-01
1.501719526175009645e-01
1.501719526175009645e-01
1.509361864730607572e-01
1.509361864730607572e-01
1.509361864730607572e-01
1.501719526175009645e-01
1.501719526175009645e-01
1.704241497898356938e-01
1.704241497898356938e-01
1.704241497898356938e-01
1.497898356897210681e-01
1.497898356897210681e-01
1.593427588842185605e-01
1.593427588842185605e-01
1.593427588842185605e-01
1.429117309896828503e-01
1.429117309896828503e-01
1.383263278563240384e-01
1.383263278563240384e-01
1.383263278563240384e-01
1.432938479174627466e-01
1.432938479174627466e-01
1.604891096675582773e-01
1.604891096675582773e-01
1.604891096675582773e-01
1.440580817730225394e-01
1.440580817730225394e-01
1.509361864730607572e-01
1.509361864730607572e-01
1.509361864730607572e-01
1.486434849063813513e-01
1.486434849063813513e-01
1.356515093618647361e-01
1.356515093618647361e-01
1.356515093618647361e-01
1.559037065341994654e-01
1.559037065341994654e-01
1.585785250286587678e-01
1.585785250286587678e-01
1.585785250286587678e-01
1.448223156285823598e-01
1.448223156285823598e-01
1.505540695452808608e-01
1.505540695452808608e-01
1.505540695452808608e-01
1.348872755063049156e-01
1.348872755063049156e-01
1.329766908674054338e-01
1.329766908674054338e-01
1.329766908674054338e-01
1.455865494841421526e-01
1.455865494841421526e-01
1.272449369507069050e-01
1.272449369507069050e-01
1.272449369507069050e-01
1.364157432174245288e-01
1.364157432174245288e-01
1.448223156285823598e-01
1.448223156285823598e-01
1.448223156285823598e-01
1.432938479174627466e-01
1.432938479174627466e-01
1.429117309896828503e-01
1.429117309896828503e-01
1.429117309896828503e-01
1.299197554451662073e-01
1.299197554451662073e-01
1.276270538784868291e-01
1.276270538784868291e-01
1.276270538784868291e-01
1.260985861673672159e-01
1.260985861673672159e-01
1.390905617118838311e-01
1.390905617118838311e-01
1.390905617118838311e-01
1.452044325563622562e-01
1.452044325563622562e-01
1.348872755063049156e-01
1.348872755063049156e-01
1.348872755063049156e-01
1.218952999617883004e-01
1.218952999617883004e-01
1.238058846006878100e-01
1.238058846006878100e-01
1.238058846006878100e-01
1.367978601452044252e-01
1.367978601452044252e-01
1.341230416507451229e-01
1.341230416507451229e-01
1.341230416507451229e-01
1.192204814673289981e-01
1.192204814673289981e-01
1.188383645395491017e-01
1.188383645395491017e-01
1.188383645395491017e-01
1.390905617118838311e-01
1.390905617118838311e-01
1.211310661062285077e-01
1.211310661062285077e-01
1.211310661062285077e-01
1.306839893007260278e-01
1.306839893007260278e-01
1.379442109285441420e-01
1.379442109285441420e-01
1.379442109285441420e-01
1.333588077951853301e-01
1.333588077951853301e-01
1.218952999617883004e-01
1.218952999617883004e-01
1.218952999617883004e-01
1.352693924340848397e-01
1.352693924340848397e-01
1.157814291173099031e-01
1.157814291173099031e-01
1.157814291173099031e-01
1.150171952617500964e-01
1.150171952617500964e-01
1.245701184562476166e-01
1.245701184562476166e-01
1.245701184562476166e-01
1.165456629728696958e-01
1.165456629728696958e-01
1.176920137562093988e-01
1.176920137562093988e-01
1.176920137562093988e-01
1.077569736339319822e-01
1.077569736339319822e-01
1.176920137562093988e-01
1.176920137562093988e-01
1.176920137562093988e-01
1.123423767672907941e-01
1.123423767672907941e-01
1.218952999617883004e-01
1.218952999617883004e-01
1.218952999617883004e-01
1.096675582728314918e-01
1.096675582728314918e-01
1.146350783339702001e-01
1.146350783339702001e-01
1.146350783339702001e-01
1.089033244172716852e-01
1.089033244172716852e-01
1.173098968284295024e-01
1.173098968284295024e-01
1.173098968284295024e-01
1.264807030951471123e-01
1.264807030951471123e-01
1.077569736339319822e-01
1.077569736339319822e-01
1.077569736339319822e-01
1.215131830340084040e-01
1.215131830340084040e-01
1.108139090561711948e-01
1.108139090561711948e-01
1.108139090561711948e-01
1.138708444784103935e-01
1.138708444784103935e-01
1.222774168895682106e-01
1.222774168895682106e-01
1.073748567061520859e-01
1.073748567061520859e-01
1.073748567061520859e-01
1.089033244172716852e-01
1.089033244172716852e-01
1.276270538784868291e-01
1.276270538784868291e-01
1.276270538784868291e-01
1.199847153228888047e-01
1.199847153228888047e-01
1.016431027894535710e-01
1.016431027894535710e-01
1.016431027894535710e-01
1.257164692395873196e-01
1.257164692395873196e-01
1.291555215896064146e-01
1.291555215896064146e-01
1.291555215896064146e-01
1.268628200229270087e-01
1.268628200229270087e-01
1.203668322506687011e-01
1.203668322506687011e-01
1.203668322506687011e-01
1.077569736339319822e-01
1.077569736339319822e-01
1.146350783339702001e-01
1.146350783339702001e-01
1.146350783339702001e-01
1.199847153228888047e-01
1.199847153228888047e-01
1.218952999617883004e-01
1.218952999617883004e-01
1.218952999617883004e-01
1.295376385173863110e-01
1.295376385173863110e-01
1.413832632785632371e-01
1.413832632785632371e-01
1.413832632785632371e-01
1.417653802063431334e-01
1.417653802063431334e-01
1.478792510508215585e-01
1.478792510508215585e-01
1.478792510508215585e-01
1.322124570118456133e-01
1.322124570118456133e-01
1.497898356897210681e-01
1.497898356897210681e-01
1.497898356897210681e-01
1.673672143675964952e-01
1.673672143675964952e-01
1.673672143675964952e-01
1.673672143675964952e-01
1.673672143675964952e-01
1.883836453954910173e-01
1.883836453954910173e-01
1.811234237676729031e-01
1.811234237676729031e-01
1.811234237676729031e-01
2.170424149789835777e-01
2.170424149789835777e-01
2.204814673290026728e-01
2.204814673290026728e-01
2.204814673290026728e-01
2.338555598012991843e-01
2.338555598012991843e-01
2.361482613679785902e-01
2.361482613679785902e-01
2.361482613679785902e-01
2.472296522735957236e-01
2.472296522735957236e-01
2.564004585403133474e-01
2.564004585403133474e-01
2.564004585403133474e-01
2.766526557126480768e-01
2.766526557126480768e-01
2.949942682460833243e-01
2.949942682460833243e-01
2.949942682460833243e-01
2.930836836071837870e-01
2.930836836071837870e-01
3.056935422239205336e-01
3.056935422239205336e-01
3.056935422239205336e-01
3.171570500573175355e-01
3.171570500573175355e-01
3.286205578907145375e-01
3.286205578907145375e-01
3.286205578907145375e-01
3.354986625907527831e-01
3.354986625907527831e-01
3.599541459686664280e-01
3.599541459686664280e-01
3.599541459686664280e-01
3.588077951853266834e-01
3.588077951853266834e-01
3.683607183798242035e-01
3.683607183798242035e-01
3.683607183798242035e-01
3.656858998853649290e-01
3.656858998853649290e-01
3.851738632021398656e-01
3.851738632021398656e-01
3.851738632021398656e-01
3.756209400076423455e-01
3.756209400076423455e-01
3.878486816965991402e-01
3.878486816965991402e-01
3.878486816965991402e-01
3.981658387466564530e-01
3.981658387466564530e-01
4.107756973633931996e-01
4.107756973633931996e-01
4.107756973633931996e-01
4.138326327856324260e-01
4.138326327856324260e-01
4.130683989300725778e-01
4.130683989300725778e-01
4.130683989300725778e-01
4.188001528467711343e-01
4.188001528467711343e-01
4.126862820022926814e-01
4.126862820022926814e-01
4.126862820022926814e-01
4.188001528467711343e-01
4.188001528467711343e-01
4.340848299579671554e-01
4.340848299579671554e-01
4.340848299579671554e-01
4.348490638135269482e-01
4.348490638135269482e-01
4.142147497134123224e-01
4.142147497134123224e-01
4.142147497134123224e-01
4.314100114635078254e-01
4.314100114635078254e-01
4.363775315246465336e-01
4.363775315246465336e-01
4.363775315246465336e-01
4.333205961024073627e-01
4.333205961024073627e-01
4.279709591134887026e-01
4.279709591134887026e-01
4.279709591134887026e-01
4.272067252579289098e-01
4.272067252579289098e-01
4.321742453190676181e-01
4.321742453190676181e-01
4.321742453190676181e-01
4.375238823079862227e-01
4.375238823079862227e-01
4.272067252579289098e-01
4.272067252579289098e-01
4.272067252579289098e-01
4.203286205578907198e-01
4.203286205578907198e-01
4.382881161635460709e-01
4.382881161635460709e-01
4.382881161635460709e-01
4.210928544134505125e-01
4.210928544134505125e-01
4.226213221245700979e-01
4.226213221245700979e-01
4.226213221245700979e-01
4.375238823079862227e-01
4.375238823079862227e-01
4.195643867023309270e-01
4.195643867023309270e-01
4.195643867023309270e-01
4.348490638135269482e-01
4.348490638135269482e-01
4.180359189912112861e-01
4.180359189912112861e-01
4.180359189912112861e-01
4.306457776079480326e-01
4.306457776079480326e-01
4.210928544134505125e-01
4.210928544134505125e-01
4.210928544134505125e-01
4.210928544134505125e-01
4.210928544134505125e-01
4.077187619411539732e-01
4.077187619411539732e-01
4.077187619411539732e-01
4.176538020634313897e-01
4.176538020634313897e-01
4.100114635078334069e-01
4.100114635078334069e-01
4.100114635078334069e-01
4.050439434466946986e-01
4.050439434466946986e-01
4.142147497134123224e-01
4.142147497134123224e-01
4.142147497134123224e-01
4.019870080244554722e-01
4.019870080244554722e-01
4.096293465800535105e-01
4.096293465800535105e-01
4.096293465800535105e-01
3.974016048910966603e-01
3.974016048910966603e-01
3.962552541077569712e-01
3.962552541077569712e-01
4.119220481467328887e-01
4.119220481467328887e-01
4.119220481467328887e-01
3.912877340466182630e-01
3.912877340466182630e-01
3.985479556744364049e-01
3.985479556744364049e-01
3.985479556744364049e-01
3.993121895299961976e-01
3.993121895299961976e-01
3.855559801299197620e-01
3.855559801299197620e-01
3.855559801299197620e-01
3.981658387466564530e-01
3.981658387466564530e-01
3.939625525410775930e-01
3.939625525410775930e-01
3.939625525410775930e-01
3.786778754298815164e-01
3.786778754298815164e-01
3.782957585021016200e-01
3.782957585021016200e-01
3.782957585021016200e-01
3.702713030187237409e-01
3.702713030187237409e-01
3.733282384409629118e-01
3.733282384409629118e-01
3.733282384409629118e-01
3.832632785632403283e-01
3.832632785632403283e-01
3.649216660298051362e-01
3.649216660298051362e-01
3.649216660298051362e-01
3.626289644631257025e-01
3.626289644631257025e-01
3.549866259075277197e-01
3.549866259075277197e-01
3.549866259075277197e-01
3.675964845242644108e-01
3.675964845242644108e-01
3.599541459686664280e-01
3.599541459686664280e-01
3.599541459686664280e-01
3.611004967520061171e-01
3.611004967520061171e-01
3.611004967520061171e-01
3.611004967520061171e-01
3.611004967520061171e-01
3.439052350019105586e-01
3.439052350019105586e-01
3.481085212074894741e-01
3.481085212074894741e-01
3.481085212074894741e-01
3.461979365685899923e-01
3.461979365685899923e-01
3.397019487963316986e-01
3.397019487963316986e-01
3.397019487963316986e-01
3.190676346962170173e-01
3.190676346962170173e-01
3.358807795185326794e-01
3.358807795185326794e-01
3.358807795185326794e-01
3.278563240351547448e-01
3.278563240351547448e-01
3.190676346962170173e-01
3.190676346962170173e-01
3.190676346962170173e-01
3.213603362628964510e-01
3.213603362628964510e-01
3.114252961406190345e-01
3.114252961406190345e-01
3.114252961406190345e-01
3.160106992739778464e-01
3.160106992739778464e-01
3.102789453572793454e-01
3.102789453572793454e-01
3.102789453572793454e-01
2.900267481849446161e-01
2.900267481849446161e-01
2.865876958349254933e-01
2.865876958349254933e-01
2.865876958349254933e-01
2.934658005349636833e-01
2.934658005349636833e-01
2.827665265571264741e-01
2.827665265571264741e-01
2.827665265571264741e-01
2.663354986625907639e-01
2.663354986625907639e-01
2.770347726404279731e-01
2.770347726404279731e-01
2.770347726404279731e-01
2.648070309514711229e-01
2.648070309514711229e-01
2.735957202904088503e-01
2.735957202904088503e-01
2.735957202904088503e-01
2.499044707680550259e-01
2.499044707680550259e-01
2.625143293847917447e-01
2.625143293847917447e-01
2.625143293847917447e-01
2.544898739014138100e-01
2.544898739014138100e-01
2.579289262514329328e-01
2.579289262514329328e-01
2.579289262514329328e-01
2.468475353458158272e-01
2.468475353458158272e-01
2.369124952235384107e-01
2.369124952235384107e-01
2.369124952235384107e-01
2.311807413068398820e-01
2.311807413068398820e-01
2.342376767290791084e-01
2.342376767290791084e-01
2.342376767290791084e-01
2.216278181123423896e-01
2.216278181123423896e-01
2.277416889568207869e-01
2.277416889568207869e-01
2.277416889568207869e-01
2.265953381734810979e-01
2.265953381734810979e-01
2.269774551012609942e-01
2.269774551012609942e-01
2.269774551012609942e-01
2.204814673290026728e-01
2.204814673290026728e-01
2.074894917844860576e-01
2.074894917844860576e-01
2.074894917844860576e-01
2.200993504012227764e-01
2.200993504012227764e-01
2.036683225066870384e-01
2.036683225066870384e-01
2.036683225066870384e-01
2.101643102789453599e-01
2.101643102789453599e-01
1.987008024455483302e-01
1.987008024455483302e-01
1.987008024455483302e-01
2.094000764233855671e-01
2.094000764233855671e-01
2.090179594956056430e-01
2.090179594956056430e-01
2.090179594956056430e-01
1.948796331677493388e-01
1.948796331677493388e-01
1.990829193733282265e-01
1.990829193733282265e-01
1.990829193733282265e-01
1.941153993121895183e-01
1.941153993121895183e-01
1.960259839510890278e-01
1.960259839510890278e-01
1.960259839510890278e-01
1.899121131066106305e-01
1.899121131066106305e-01
1.929690485288498292e-01
1.929690485288498292e-01
1.929690485288498292e-01
1.883836453954910173e-01
1.883836453954910173e-01
1.872372946121513282e-01
1.872372946121513282e-01
1.872372946121513282e-01
1.738632021398547889e-01
1.738632021398547889e-01
1.937332823844096219e-01
1.937332823844096219e-01
1.937332823844096219e-01
1.857088269010317150e-01
1.857088269010317150e-01
1.727168513565150998e-01
1.727168513565150998e-01
1.727168513565150998e-01
1.780664883454337044e-01
1.780664883454337044e-01
1.784486052732136008e-01
1.784486052732136008e-01
1.784486052732136008e-01
1.708062667176155902e-01
1.708062667176155902e-01
1.704241497898356938e-01
1.704241497898356938e-01
1.704241497898356938e-01
1.853267099732518186e-01
1.853267099732518186e-01
1.784486052732136008e-01
1.784486052732136008e-01
1.784486052732136008e-01
1.765380206343140912e-01
1.765380206343140912e-01
1.803591899121131104e-01
1.803591899121131104e-01
1.803591899121131104e-01
1.669850974398165711e-01
1.669850974398165711e-01
1.696599159342759011e-01
1.696599159342759011e-01
1.696599159342759011e-01
1.708062667176155902e-01
1.708062667176155902e-01
1.654566297286969856e-01
1.654566297286969856e-01
1.654566297286969856e-01
1.654566297286969856e-01
1.654566297286969856e-01
1.539931218952999559e-01
1.539931218952999559e-01
1.673672143675964952e-01
1.673672143675964952e-01
1.673672143675964952e-01
1.581964081008788714e-01
1.581964081008788714e-01
1.532288880397401631e-01
1.532288880397401631e-01
1.532288880397401631e-01
1.578142911730989750e-01
1.578142911730989750e-01
1.631639281620175796e-01
1.631639281620175796e-01
1.631639281620175796e-01
1.501719526175009645e-01
1.501719526175009645e-01
1.459686664119220489e-01
1.459686664119220489e-01
1.459686664119220489e-01
1.547573557508597764e-01
1.547573557508597764e-01
1.589606419564386641e-01
1.589606419564386641e-01
1.589606419564386641e-01
1.639281620175773724e-01
1.639281620175773724e-01
1.643102789453572687e-01
1.643102789453572687e-01
1.643102789453572687e-01
1.562858234619793618e-01
1.562858234619793618e-01
1.467329002674818417e-01
1.467329002674818417e-01
1.467329002674818417e-01
1.620175773786778628e-01
1.620175773786778628e-01
1.417653802063431334e-01
1.417653802063431334e-01
1.417653802063431334e-01
1.463507833397019453e-01
1.463507833397019453e-01
1.555215896064195691e-01
1.555215896064195691e-01
1.555215896064195691e-01
1.394726786396637275e-01
1.394726786396637275e-01
1.578142911730989750e-01
1.578142911730989750e-01
1.578142911730989750e-01
1.398547955674436516e-01
1.398547955674436516e-01
1.421474971341230298e-01
1.421474971341230298e-01
1.421474971341230298e-01
1.471150171952617380e-01
1.471150171952617380e-01
1.413832632785632371e-01
1.413832632785632371e-01
1.413832632785632371e-01
1.341230416507451229e-01
1.341230416507451229e-01
1.352693924340848397e-01
1.352693924340848397e-01
1.352693924340848397e-01
1.517004203286205499e-01
1.517004203286205499e-01
1.303018723729461315e-01
1.303018723729461315e-01
1.303018723729461315e-01
1.310661062285059242e-01
1.310661062285059242e-01
1.333588077951853301e-01
1.333588077951853301e-01
1.333588077951853301e-01
1.360336262896446324e-01
1.360336262896446324e-01
1.421474971341230298e-01
1.421474971341230298e-01
1.421474971341230298e-01
1.410011463507833407e-01
1.410011463507833407e-01
1.367978601452044252e-01
1.367978601452044252e-01
1.367978601452044252e-01
1.410011463507833407e-01
1.410011463507833407e-01
1.413832632785632371e-01
1.413832632785632371e-01
1.413832632785632371e-01
1.387084447841039347e-01
1.387084447841039347e-01
1.260985861673672159e-01
1.260985861673672159e-01
1.260985861673672159e-01
1.348872755063049156e-01
1.348872755063049156e-01
1.390905617118838311e-01
1.390905617118838311e-01
1.390905617118838311e-01
1.398547955674436516e-01
1.398547955674436516e-01
1.203668322506687011e-01
1.203668322506687011e-01
1.203668322506687011e-01
1.322124570118456133e-01
1.322124570118456133e-01
1.352693924340848397e-01
1.352693924340848397e-01
1.352693924340848397e-01
1.367978601452044252e-01
1.367978601452044252e-01
1.367978601452044252e-01
1.367978601452044252e-01
1.367978601452044252e-01
1.257164692395873196e-01
1.257164692395873196e-01
1.192204814673289981e-01
1.192204814673289981e-01
1.192204814673289981e-01
1.348872755063049156e-01
1.348872755063049156e-01
1.165456629728696958e-01
1.165456629728696958e-01
1.165456629728696958e-01
1.138708444784103935e-01
1.138708444784103935e-01
1.134887275506304971e-01
1.134887275506304971e-01
1.134887275506304971e-01
1.276270538784868291e-01
1.276270538784868291e-01
1.337409247229652265e-01
1.337409247229652265e-01
1.337409247229652265e-01
1.157814291173099031e-01
1.157814291173099031e-01
1.184562476117692054e-01
1.184562476117692054e-01
1.184562476117692054e-01
1.176920137562093988e-01
1.176920137562093988e-01
1.207489491784486113e-01
1.207489491784486113e-01
1.207489491784486113e-01
1.157814291173099031e-01
1.157814291173099031e-01
1.096675582728314918e-01
1.096675582728314918e-01
1.096675582728314918e-01
1.211310661062285077e-01
1.211310661062285077e-01
1.142529614061902898e-01
1.142529614061902898e-01
1.142529614061902898e-01
1.119602598395108839e-01
1.119602598395108839e-01
1.222774168895682106e-01
1.222774168895682106e-01
1.222774168895682106e-01
1.150171952617500964e-01
1.150171952617500964e-01
1.241880015284677063e-01
1.241880015284677063e-01
1.241880015284677063e-01
1.291555215896064146e-01
1.291555215896064146e-01
1.184562476117692054e-01
1.184562476117692054e-01
1.184562476117692054e-01
1.069927397783721756e-01
1.069927397783721756e-01
1.035536874283530806e-01
1.035536874283530806e-01
1.035536874283530806e-01
1.062285059228123829e-01
1.062285059228123829e-01
1.058463889950324865e-01
1.058463889950324865e-01
1.058463889950324865e-01
1.180741306839892951e-01
1.180741306839892951e-01
1.092854413450515816e-01
1.092854413450515816e-01
1.092854413450515816e-01
1.016431027894535710e-01
1.016431027894535710e-01
1.180741306839892951e-01
1.180741306839892951e-01
1.180741306839892951e-01
1.016431027894535710e-01
1.016431027894535710e-01
1.260985861673672159e-01
1.260985861673672159e-01
1.260985861673672159e-01
9.935040122277416508e-02
9.935040122277416508e-02
1.196025983951089083e-01
1.196025983951089083e-01
1.157814291173099031e-01
1.157814291173099031e-01
1.157814291173099031e-01
1.020252197172334674e-01
1.020252197172334674e-01
1.077569736339319822e-01
1.077569736339319822e-01
1.077569736339319822e-01
1.054642720672525763e-01
1.054642720672525763e-01
1.123423767672907941e-01
1.123423767672907941e-01
1.123423767672907941e-01
1.218952999617883004e-01
1.218952999617883004e-01
1.150171952617500964e-01
1.150171952617500964e-01
1.150171952617500964e-01
1.047000382116927836e-01
1.047000382116927836e-01
1.203668322506687011e-01
1.203668322506687011e-01
1.203668322506687011e-01
1.299197554451662073e-01
1.299197554451662073e-01
1.291555215896064146e-01
1.291555215896064146e-01
1.291555215896064146e-01
1.222774168895682106e-01
1.222774168895682106e-01
1.318303400840657169e-01
1.318303400840657169e-01
1.318303400840657169e-01
1.474971341230416622e-01
1.474971341230416622e-01
1.616354604508979664e-01
1.616354604508979664e-01
1.616354604508979664e-01
1.570500573175391545e-01
1.570500573175391545e-01
1.730989682842949962e-01
1.730989682842949962e-01
1.730989682842949962e-01
1.769201375620939876e-01
1.769201375620939876e-01
1.994650363011081506e-01
1.994650363011081506e-01
1.994650363011081506e-01
1.948796331677493388e-01
1.948796331677493388e-01
2.155139472678639645e-01
2.155139472678639645e-01
2.155139472678639645e-01
2.243026366068016919e-01
2.243026366068016919e-01
2.445548337791364213e-01
2.445548337791364213e-01
2.445548337791364213e-01
2.628964463125716411e-01
2.628964463125716411e-01
2.732136033626289540e-01
2.732136033626289540e-01
2.732136033626289540e-01
2.674818494459304530e-01
2.674818494459304530e-01
2.877340466182651824e-01
2.877340466182651824e-01
2.877340466182651824e-01
2.907909820405044088e-01
2.907909820405044088e-01
3.133358807795185164e-01
3.133358807795185164e-01
3.133358807795185164e-01
3.156285823461979501e-01
3.156285823461979501e-01
3.412304165074512841e-01
3.412304165074512841e-01
3.412304165074512841e-01
3.450515857852503032e-01
3.450515857852503032e-01
3.519296904852884933e-01
3.519296904852884933e-01
3.519296904852884933e-01
3.507833397019488042e-01
3.507833397019488042e-01
3.580435613297668906e-01
3.580435613297668906e-01
3.580435613297668906e-01
3.603362628964463243e-01
3.603362628964463243e-01
3.733282384409629118e-01
3.733282384409629118e-01
3.733282384409629118e-01
3.748567061520825527e-01
3.748567061520825527e-01
3.840275124188001765e-01
3.840275124188001765e-01
3.840275124188001765e-01
3.893771494077187811e-01
3.893771494077187811e-01
4.092472296522736142e-01
4.092472296522736142e-01
4.092472296522736142e-01
4.023691249522353686e-01
4.023691249522353686e-01
4.008406572411157831e-01
4.008406572411157831e-01
4.008406572411157831e-01
4.153611004967520115e-01
4.153611004967520115e-01
4.069545280855941805e-01
4.069545280855941805e-01
4.069545280855941805e-01
4.103935804356133032e-01
4.103935804356133032e-01
4.237676729079098426e-01
4.237676729079098426e-01
4.237676729079098426e-01
4.279709591134887026e-01
4.279709591134887026e-01
4.241497898356897389e-01
4.241497898356897389e-01
4.241497898356897389e-01
4.172716851356514933e-01
4.172716851356514933e-01
4.367596484524264300e-01
4.367596484524264300e-01
4.367596484524264300e-01
4.264424914023691171e-01
4.264424914023691171e-01
4.356132976690867409e-01
4.356132976690867409e-01
4.356132976690867409e-01
4.417271685135651382e-01
4.417271685135651382e-01
4.356132976690867409e-01
4.356132976690867409e-01
4.356132976690867409e-01
4.413450515857852419e-01
4.413450515857852419e-01
4.260603744745892207e-01
4.260603744745892207e-01
4.260603744745892207e-01
4.172716851356514933e-01
4.172716851356514933e-01
4.218570882690103052e-01
4.218570882690103052e-01
4.218570882690103052e-01
4.256782575468093244e-01
4.256782575468093244e-01
4.256782575468093244e-01
4.256782575468093244e-01
4.256782575468093244e-01
4.176538020634313897e-01
4.176538020634313897e-01
4.168895682078715970e-01
4.168895682078715970e-01
4.168895682078715970e-01
4.325563622468475145e-01
4.325563622468475145e-01
4.145968666411922188e-01
4.145968666411922188e-01
4.145968666411922188e-01
4.134505158578525297e-01
4.134505158578525297e-01
4.130683989300725778e-01
4.130683989300725778e-01
4.130683989300725778e-01
4.092472296522736142e-01
4.092472296522736142e-01
4.153611004967520115e-01
4.153611004967520115e-01
4.153611004967520115e-01
4.195643867023309270e-01
4.195643867023309270e-01
4.184180359189912379e-01
4.184180359189912379e-01
4.184180359189912379e-01
4.180359189912112861e-01
4.180359189912112861e-01
4.157432174245319079e-01
4.157432174245319079e-01
4.157432174245319079e-01
4.038975926633550095e-01
4.038975926633550095e-01
4.016048910966755758e-01
4.016048910966755758e-01
4.016048910966755758e-01
4.050439434466946986e-01
4.050439434466946986e-01
4.054260603744745950e-01
4.054260603744745950e-01
4.054260603744745950e-01
3.951089033244172821e-01
3.951089033244172821e-01
4.054260603744745950e-01
4.054260603744745950e-01
4.054260603744745950e-01
3.970194879633167639e-01
3.970194879633167639e-01
3.798242262132212610e-01
3.798242262132212610e-01
3.935804356132976967e-01
3.935804356132976967e-01
3.935804356132976967e-01
3.805884600687810537e-01
3.805884600687810537e-01
3.805884600687810537e-01
3.805884600687810537e-01
3.805884600687810537e-01
3.752388230798624491e-01
3.752388230798624491e-01
3.905235001910584702e-01
3.905235001910584702e-01
3.905235001910584702e-01
3.695070691631639481e-01
3.695070691631639481e-01
3.672143675964845144e-01
3.672143675964845144e-01
3.672143675964845144e-01
3.633931983186854953e-01
3.633931983186854953e-01
3.717997707298433263e-01
3.717997707298433263e-01
3.717997707298433263e-01
3.500191058463890115e-01
3.500191058463890115e-01
3.473442873519296814e-01
3.473442873519296814e-01
3.473442873519296814e-01
3.603362628964463243e-01
3.603362628964463243e-01
3.588077951853266834e-01
3.588077951853266834e-01
3.588077951853266834e-01
3.370271303018723685e-01
3.370271303018723685e-01
3.454337027130301996e-01
3.454337027130301996e-01
3.454337027130301996e-01
3.397019487963316986e-01
3.397019487963316986e-01
3.504012227741689078e-01
3.504012227741689078e-01
3.504012227741689078e-01
3.320596102407336603e-01
3.320596102407336603e-01
3.320596102407336603e-01
3.320596102407336603e-01
3.320596102407336603e-01
3.118074130683989309e-01
3.118074130683989309e-01
3.106610622850592418e-01
3.106610622850592418e-01
3.106610622850592418e-01
3.190676346962170173e-01
3.190676346962170173e-01
3.076041268628200154e-01
3.076041268628200154e-01
3.076041268628200154e-01
2.999617883072220326e-01
2.999617883072220326e-01
2.911730989682843052e-01
2.911730989682843052e-01
2.911730989682843052e-01
3.007260221627818253e-01
3.007260221627818253e-01
2.862055789071455969e-01
2.862055789071455969e-01
2.862055789071455969e-01
2.934658005349636833e-01
2.934658005349636833e-01
2.755063049293083877e-01
2.755063049293083877e-01
2.755063049293083877e-01
2.762705387848681804e-01
2.762705387848681804e-01
2.747420710737485394e-01
2.747420710737485394e-01
2.747420710737485394e-01
2.636606801681314338e-01
2.636606801681314338e-01
2.659533817348108675e-01
2.659533817348108675e-01
2.659533817348108675e-01
2.720672525792892649e-01
2.720672525792892649e-01
2.506687046236148464e-01
2.506687046236148464e-01
2.506687046236148464e-01
2.502865876958349500e-01
2.502865876958349500e-01
2.453190676346962140e-01
2.453190676346962140e-01
2.453190676346962140e-01
2.537256400458540173e-01
2.537256400458540173e-01
2.411157814291172985e-01
2.411157814291172985e-01
2.411157814291172985e-01
2.372946121513183071e-01
2.372946121513183071e-01
2.327092090179594952e-01
2.327092090179594952e-01
2.327092090179594952e-01
2.334734428735192879e-01
2.334734428735192879e-01
2.277416889568207869e-01
2.277416889568207869e-01
2.277416889568207869e-01
2.197172334734428800e-01
2.197172334734428800e-01
2.292701566679404002e-01
2.292701566679404002e-01
2.292701566679404002e-01
2.338555598012991843e-01
2.338555598012991843e-01
2.223920519679021823e-01
2.223920519679021823e-01
2.223920519679021823e-01
2.216278181123423896e-01
2.216278181123423896e-01
2.166602980512036813e-01
2.166602980512036813e-01
2.166602980512036813e-01
2.044325563622468589e-01
2.044325563622468589e-01
2.086358425678257467e-01
2.086358425678257467e-01
2.086358425678257467e-01
1.948796331677493388e-01
1.948796331677493388e-01
1.933511654566297255e-01
1.933511654566297255e-01
1.933511654566297255e-01
2.105464272067252562e-01
2.105464272067252562e-01
2.009935040122277361e-01
2.009935040122277361e-01
2.009935040122277361e-01
2.029040886511272457e-01
2.029040886511272457e-01
1.899121131066106305e-01
1.899121131066106305e-01
1.899121131066106305e-01
2.048146732900267553e-01
2.048146732900267553e-01
1.868551776843714041e-01
1.868551776843714041e-01
1.868551776843714041e-01
1.941153993121895183e-01
1.941153993121895183e-01
1.872372946121513282e-01
1.872372946121513282e-01
1.872372946121513282e-01
1.864730607565915077e-01
1.864730607565915077e-01
1.795949560565533176e-01
1.795949560565533176e-01
1.795949560565533176e-01
1.849445930454719222e-01
1.849445930454719222e-01
1.910584638899503196e-01
1.910584638899503196e-01
1.910584638899503196e-01
1.715705005731753829e-01
1.715705005731753829e-01
1.811234237676729031e-01
1.811234237676729031e-01
1.811234237676729031e-01
1.719526175009552793e-01
1.719526175009552793e-01
1.738632021398547889e-01
1.738632021398547889e-01
1.738632021398547889e-01
1.750095529231945057e-01
1.750095529231945057e-01
1.635460450897974760e-01
1.635460450897974760e-01
1.635460450897974760e-01
1.639281620175773724e-01
1.639281620175773724e-01
1.730989682842949962e-01
1.730989682842949962e-01
1.730989682842949962e-01
1.788307222009934971e-01
1.788307222009934971e-01
1.620175773786778628e-01
1.620175773786778628e-01
1.620175773786778628e-01
1.662208635842567783e-01
1.662208635842567783e-01
1.692777990064959770e-01
1.692777990064959770e-01
1.692777990064959770e-01
1.765380206343140912e-01
1.765380206343140912e-01
1.539931218952999559e-01
1.539931218952999559e-01
1.539931218952999559e-01
1.597248758119984846e-01
1.597248758119984846e-01
1.551394726786396727e-01
1.551394726786396727e-01
1.551394726786396727e-01
1.669850974398165711e-01
1.669850974398165711e-01
1.677493312953763915e-01
1.677493312953763915e-01
1.662208635842567783e-01
1.662208635842567783e-01
1.662208635842567783e-01
1.612533435231180701e-01
1.612533435231180701e-01
1.715705005731753829e-01
1.715705005731753829e-01
1.715705005731753829e-01
1.513183034008406536e-01
1.513183034008406536e-01
1.566679403897592582e-01
1.566679403897592582e-01
1.566679403897592582e-01
1.562858234619793618e-01
1.562858234619793618e-01
1.532288880397401631e-01
1.532288880397401631e-01
1.532288880397401631e-01
1.650745128009170892e-01
1.650745128009170892e-01
1.551394726786396727e-01
1.551394726786396727e-01
1.551394726786396727e-01
1.455865494841421526e-01
1.455865494841421526e-01
1.581964081008788714e-01
1.581964081008788714e-01
1.581964081008788714e-01
1.490256018341612476e-01
1.490256018341612476e-01
1.597248758119984846e-01
1.597248758119984846e-01
1.597248758119984846e-01
1.532288880397401631e-01
1.532288880397401631e-01
1.551394726786396727e-01
1.551394726786396727e-01
1.551394726786396727e-01
1.509361864730607572e-01
1.509361864730607572e-01
1.394726786396637275e-01
1.394726786396637275e-01
1.394726786396637275e-01
1.478792510508215585e-01
1.478792510508215585e-01
1.348872755063049156e-01
1.348872755063049156e-01
1.348872755063049156e-01
1.295376385173863110e-01
1.295376385173863110e-01
1.348872755063049156e-01
1.348872755063049156e-01
1.348872755063049156e-01
1.356515093618647361e-01
1.356515093618647361e-01
1.452044325563622562e-01
1.452044325563622562e-01
1.452044325563622562e-01
1.421474971341230298e-01
1.421474971341230298e-01
1.513183034008406536e-01
1.513183034008406536e-01
1.513183034008406536e-01
1.333588077951853301e-01
1.333588077951853301e-01
1.444401987008024357e-01
1.444401987008024357e-01
1.444401987008024357e-01
1.325945739396255374e-01
1.325945739396255374e-01
1.260985861673672159e-01
1.260985861673672159e-01
1.260985861673672159e-01
1.253343523118074232e-01
1.253343523118074232e-01
1.234237676729079136e-01
1.234237676729079136e-01
1.234237676729079136e-01
1.222774168895682106e-01
1.222774168895682106e-01
1.425296140619029539e-01
1.425296140619029539e-01
1.425296140619029539e-01
1.318303400840657169e-01
1.318303400840657169e-01
1.413832632785632371e-01
1.413832632785632371e-01
1.413832632785632371e-01
1.238058846006878100e-01
1.238058846006878100e-01
1.173098968284295024e-01
1.173098968284295024e-01
1.173098968284295024e-01
1.356515093618647361e-01
1.356515093618647361e-01
1.230416507451280034e-01
1.230416507451280034e-01
1.230416507451280034e-01
1.333588077951853301e-01
1.333588077951853301e-01
