3.473442873519296814e-01
3.473442873519296814e-01
3.481085212074894741e-01
3.481085212074894741e-01
3.481085212074894741e-01
3.259457393962552629e-01
3.259457393962552629e-01
3.290026748184944339e-01
3.290026748184944339e-01
3.290026748184944339e-01
3.286205578907145375e-01
3.286205578907145375e-01
3.160106992739778464e-01
3.160106992739778464e-01
3.160106992739778464e-01
3.194497516239969692e-01
3.194497516239969692e-01
3.068398930072602226e-01
3.068398930072602226e-01
3.068398930072602226e-01
3.209782193351165547e-01
3.209782193351165547e-01
3.011081390905617217e-01
3.011081390905617217e-01
3.011081390905617217e-01
3.114252961406190345e-01
3.114252961406190345e-01
3.072220099350401190e-01
3.072220099350401190e-01
3.072220099350401190e-01
2.884982804738249751e-01
2.884982804738249751e-01
2.816201757737867850e-01
2.816201757737867850e-01
2.816201757737867850e-01
2.842949942682460596e-01
2.842949942682460596e-01
2.823844096293465777e-01
2.823844096293465777e-01
2.823844096293465777e-01
2.735957202904088503e-01
2.735957202904088503e-01
2.732136033626289540e-01
2.732136033626289540e-01
2.732136033626289540e-01
2.797095911348873032e-01
2.797095911348873032e-01
2.606037447458922629e-01
2.606037447458922629e-01
2.606037447458922629e-01
2.632785632403515375e-01
2.632785632403515375e-01
2.625143293847917447e-01
2.625143293847917447e-01
2.625143293847917447e-01
2.640427970959113302e-01
2.640427970959113302e-01
2.586931601069927256e-01
2.586931601069927256e-01
2.586931601069927256e-01
2.625143293847917447e-01
2.625143293847917447e-01
2.628964463125716411e-01
2.628964463125716411e-01
2.628964463125716411e-01
2.499044707680550259e-01
2.499044707680550259e-01
2.506687046236148464e-01
2.506687046236148464e-01
2.506687046236148464e-01
2.437905999235766008e-01
2.437905999235766008e-01
2.564004585403133474e-01
2.564004585403133474e-01
2.564004585403133474e-01
2.514329384791746391e-01
2.514329384791746391e-01
2.495223538402751295e-01
2.495223538402751295e-01
2.495223538402751295e-01
2.395873137179977130e-01
2.395873137179977130e-01
2.476117692013756200e-01
2.476117692013756200e-01
2.476117692013756200e-01
2.369124952235384107e-01
2.369124952235384107e-01
2.541077569736339137e-01
2.541077569736339137e-01
2.541077569736339137e-01
2.502865876958349500e-01
2.502865876958349500e-01
2.441727168513565249e-01
2.441727168513565249e-01
2.441727168513565249e-01
2.323270920901795988e-01
2.323270920901795988e-01
2.445548337791364213e-01
2.445548337791364213e-01
2.445548337791364213e-01
2.311807413068398820e-01
2.311807413068398820e-01
2.296522735957202965e-01
2.296522735957202965e-01
2.296522735957202965e-01
2.388230798624378926e-01
2.388230798624378926e-01
2.464654184180359309e-01
2.464654184180359309e-01
2.464654184180359309e-01
2.319449751623997025e-01
2.319449751623997025e-01
2.296522735957202965e-01
2.296522735957202965e-01
2.296522735957202965e-01
2.361482613679785902e-01
2.361482613679785902e-01
2.327092090179594952e-01
2.327092090179594952e-01
2.327092090179594952e-01
2.369124952235384107e-01
2.369124952235384107e-01
2.372946121513183071e-01
2.372946121513183071e-01
2.372946121513183071e-01
2.499044707680550259e-01
2.499044707680550259e-01
2.365303782957585144e-01
2.365303782957585144e-01
2.365303782957585144e-01
2.457011845624761104e-01
2.457011845624761104e-01
2.365303782957585144e-01
2.365303782957585144e-01
2.365303782957585144e-01
2.399694306457776094e-01
2.399694306457776094e-01
2.265953381734810979e-01
2.265953381734810979e-01
2.265953381734810979e-01
2.369124952235384107e-01
2.369124952235384107e-01
2.350019105846389011e-01
2.350019105846389011e-01
2.350019105846389011e-01
2.388230798624378926e-01
2.388230798624378926e-01
2.200993504012227764e-01
2.200993504012227764e-01
2.200993504012227764e-01
2.292701566679404002e-01
2.292701566679404002e-01
2.357661444401986939e-01
2.357661444401986939e-01
2.357661444401986939e-01
2.250668704623614846e-01
2.250668704623614846e-01
2.269774551012609942e-01
2.269774551012609942e-01
2.269774551012609942e-01
2.220099350401222860e-01
2.220099350401222860e-01
2.281238058846006833e-01
2.281238058846006833e-01
2.281238058846006833e-01
2.220099350401222860e-01
2.220099350401222860e-01
2.246847535345815883e-01
2.246847535345815883e-01
2.246847535345815883e-01
2.296522735957202965e-01
2.296522735957202965e-01
2.269774551012609942e-01
2.269774551012609942e-01
2.269774551012609942e-01
2.246847535345815883e-01
2.246847535345815883e-01
2.281238058846006833e-01
2.281238058846006833e-01
2.281238058846006833e-01
2.258311043179212774e-01
2.258311043179212774e-01
2.265953381734810979e-01
2.265953381734810979e-01
2.265953381734810979e-01
2.223920519679021823e-01
2.223920519679021823e-01
2.334734428735192879e-01
2.334734428735192879e-01
2.334734428735192879e-01
2.174245319067634741e-01
2.174245319067634741e-01
2.097821933511654635e-01
2.097821933511654635e-01
2.097821933511654635e-01
2.162781811234237572e-01
2.162781811234237572e-01
2.204814673290026728e-01
2.204814673290026728e-01
2.204814673290026728e-01
2.113106610622850490e-01
2.113106610622850490e-01
2.078716087122659539e-01
2.078716087122659539e-01
2.078716087122659539e-01
2.063431410011463407e-01
2.063431410011463407e-01
2.097821933511654635e-01
2.097821933511654635e-01
2.204814673290026728e-01
2.204814673290026728e-01
2.204814673290026728e-01
2.113106610622850490e-01
2.113106610622850490e-01
1.983186855177684338e-01
1.983186855177684338e-01
1.983186855177684338e-01
1.994650363011081506e-01
1.994650363011081506e-01
2.006113870844478397e-01
2.006113870844478397e-01
2.006113870844478397e-01
1.983186855177684338e-01
1.983186855177684338e-01
2.025219717233473493e-01
2.025219717233473493e-01
2.025219717233473493e-01
1.975544516622086411e-01
1.975544516622086411e-01
1.925869316010699328e-01
1.925869316010699328e-01
1.925869316010699328e-01
1.887657623232709136e-01
1.887657623232709136e-01
2.021398547955674529e-01
2.021398547955674529e-01
2.021398547955674529e-01
1.944975162399694424e-01
1.944975162399694424e-01
2.013756209400076325e-01
2.013756209400076325e-01
2.013756209400076325e-01
1.967902178066488483e-01
1.967902178066488483e-01
2.006113870844478397e-01
2.006113870844478397e-01
2.006113870844478397e-01
2.036683225066870384e-01
2.036683225066870384e-01
1.952617500955292351e-01
1.952617500955292351e-01
1.952617500955292351e-01
1.906763469621704232e-01
1.906763469621704232e-01
1.967902178066488483e-01
1.967902178066488483e-01
1.967902178066488483e-01
1.937332823844096219e-01
1.937332823844096219e-01
1.918226977455101123e-01
1.918226977455101123e-01
1.918226977455101123e-01
1.944975162399694424e-01
1.944975162399694424e-01
1.906763469621704232e-01
1.906763469621704232e-01
1.906763469621704232e-01
1.941153993121895183e-01
1.941153993121895183e-01
1.727168513565150998e-01
1.727168513565150998e-01
1.727168513565150998e-01
1.830340084065724127e-01
1.830340084065724127e-01
1.845624761176920259e-01
1.845624761176920259e-01
1.845624761176920259e-01
1.822697745510126199e-01
1.822697745510126199e-01
1.715705005731753829e-01
1.715705005731753829e-01
1.715705005731753829e-01
1.704241497898356938e-01
1.704241497898356938e-01
1.765380206343140912e-01
1.765380206343140912e-01
1.765380206343140912e-01
1.860909438288116113e-01
1.860909438288116113e-01
1.811234237676729031e-01
1.811234237676729031e-01
1.811234237676729031e-01
1.677493312953763915e-01
1.677493312953763915e-01
1.719526175009552793e-01
1.719526175009552793e-01
1.719526175009552793e-01
1.822697745510126199e-01
1.822697745510126199e-01
1.608712265953381737e-01
1.608712265953381737e-01
1.608712265953381737e-01
1.578142911730989750e-01
1.578142911730989750e-01
1.730989682842949962e-01
1.730989682842949962e-01
1.730989682842949962e-01
1.536110049675200595e-01
1.536110049675200595e-01
1.730989682842949962e-01
1.730989682842949962e-01
1.730989682842949962e-01
1.597248758119984846e-01
1.597248758119984846e-01
1.708062667176155902e-01
1.708062667176155902e-01
1.708062667176155902e-01
1.623996943064577869e-01
1.623996943064577869e-01
1.635460450897974760e-01
1.635460450897974760e-01
1.635460450897974760e-01
1.559037065341994654e-01
1.559037065341994654e-01
1.700420328620557975e-01
1.700420328620557975e-01
1.700420328620557975e-01
1.574321742453190787e-01
1.574321742453190787e-01
1.501719526175009645e-01
1.501719526175009645e-01
1.501719526175009645e-01
1.635460450897974760e-01
1.635460450897974760e-01
1.497898356897210681e-01
1.497898356897210681e-01
1.497898356897210681e-01
1.536110049675200595e-01
1.536110049675200595e-01
1.486434849063813513e-01
1.486434849063813513e-01
1.486434849063813513e-01
1.471150171952617380e-01
1.471150171952617380e-01
1.608712265953381737e-01
1.608712265953381737e-01
1.608712265953381737e-01
1.474971341230416622e-01
1.474971341230416622e-01
1.593427588842185605e-01
1.593427588842185605e-01
1.593427588842185605e-01
1.459686664119220489e-01
1.459686664119220489e-01
1.432938479174627466e-01
1.432938479174627466e-01
1.432938479174627466e-01
1.494077187619411440e-01
1.494077187619411440e-01
1.509361864730607572e-01
1.509361864730607572e-01
1.509361864730607572e-01
1.436759648452426430e-01
1.436759648452426430e-01
1.524646541841803704e-01
1.524646541841803704e-01
1.524646541841803704e-01
1.539931218952999559e-01
1.539931218952999559e-01
1.536110049675200595e-01
1.536110049675200595e-01
1.536110049675200595e-01
1.616354604508979664e-01
1.616354604508979664e-01
1.494077187619411440e-01
1.494077187619411440e-01
1.494077187619411440e-01
1.421474971341230298e-01
1.421474971341230298e-01
1.597248758119984846e-01
1.597248758119984846e-01
1.597248758119984846e-01
1.532288880397401631e-01
1.532288880397401631e-01
1.471150171952617380e-01
1.471150171952617380e-01
1.471150171952617380e-01
1.486434849063813513e-01
1.486434849063813513e-01
1.425296140619029539e-01
1.425296140619029539e-01
1.425296140619029539e-01
1.509361864730607572e-01
1.509361864730607572e-01
1.494077187619411440e-01
1.494077187619411440e-01
1.494077187619411440e-01
1.471150171952617380e-01
1.471150171952617380e-01
1.467329002674818417e-01
1.467329002674818417e-01
1.467329002674818417e-01
1.398547955674436516e-01
1.398547955674436516e-01
1.559037065341994654e-01
1.559037065341994654e-01
1.559037065341994654e-01
1.455865494841421526e-01
1.455865494841421526e-01
1.601069927397783810e-01
1.601069927397783810e-01
1.497898356897210681e-01
1.497898356897210681e-01
1.497898356897210681e-01
1.486434849063813513e-01
1.486434849063813513e-01
1.463507833397019453e-01
1.463507833397019453e-01
1.463507833397019453e-01
1.517004203286205499e-01
1.517004203286205499e-01
1.482613679786014549e-01
1.482613679786014549e-01
1.482613679786014549e-01
1.581964081008788714e-01
1.581964081008788714e-01
1.536110049675200595e-01
1.536110049675200595e-01
1.536110049675200595e-01
1.410011463507833407e-01
1.410011463507833407e-01
1.547573557508597764e-01
1.547573557508597764e-01
1.547573557508597764e-01
1.513183034008406536e-01
1.513183034008406536e-01
1.543752388230798522e-01
1.543752388230798522e-01
1.543752388230798522e-01
1.444401987008024357e-01
1.444401987008024357e-01
1.444401987008024357e-01
1.444401987008024357e-01
1.444401987008024357e-01
1.421474971341230298e-01
1.421474971341230298e-01
1.440580817730225394e-01
1.440580817730225394e-01
1.440580817730225394e-01
1.490256018341612476e-01
1.490256018341612476e-01
1.398547955674436516e-01
1.398547955674436516e-01
1.398547955674436516e-01
1.425296140619029539e-01
1.425296140619029539e-01
1.520825372564004463e-01
1.520825372564004463e-01
1.520825372564004463e-01
1.486434849063813513e-01
1.486434849063813513e-01
1.589606419564386641e-01
1.589606419564386641e-01
1.589606419564386641e-01
1.432938479174627466e-01
1.432938479174627466e-01
1.486434849063813513e-01
1.486434849063813513e-01
1.486434849063813513e-01
1.505540695452808608e-01
1.505540695452808608e-01
1.429117309896828503e-01
1.429117309896828503e-01
1.429117309896828503e-01
1.455865494841421526e-01
1.455865494841421526e-01
1.471150171952617380e-01
1.471150171952617380e-01
1.471150171952617380e-01
1.413832632785632371e-01
1.413832632785632371e-01
1.593427588842185605e-01
1.593427588842185605e-01
1.593427588842185605e-01
1.379442109285441420e-01
1.379442109285441420e-01
1.387084447841039347e-01
1.387084447841039347e-01
1.387084447841039347e-01
1.440580817730225394e-01
1.440580817730225394e-01
1.578142911730989750e-01
1.578142911730989750e-01
1.578142911730989750e-01
1.486434849063813513e-01
1.486434849063813513e-01
1.517004203286205499e-01
1.517004203286205499e-01
1.517004203286205499e-01
1.410011463507833407e-01
1.410011463507833407e-01
1.486434849063813513e-01
1.486434849063813513e-01
1.486434849063813513e-01
1.474971341230416622e-01
1.474971341230416622e-01
1.578142911730989750e-01
1.578142911730989750e-01
1.578142911730989750e-01
1.513183034008406536e-01
1.513183034008406536e-01
1.452044325563622562e-01
1.452044325563622562e-01
1.452044325563622562e-01
1.494077187619411440e-01
1.494077187619411440e-01
1.536110049675200595e-01
1.536110049675200595e-01
1.536110049675200595e-01
1.494077187619411440e-01
1.494077187619411440e-01
1.452044325563622562e-01
1.452044325563622562e-01
1.452044325563622562e-01
1.517004203286205499e-01
1.517004203286205499e-01
1.543752388230798522e-01
1.543752388230798522e-01
1.543752388230798522e-01
1.471150171952617380e-01
1.471150171952617380e-01
1.505540695452808608e-01
1.505540695452808608e-01
1.505540695452808608e-01
1.398547955674436516e-01
1.398547955674436516e-01
1.566679403897592582e-01
1.566679403897592582e-01
1.566679403897592582e-01
1.455865494841421526e-01
1.455865494841421526e-01
1.471150171952617380e-01
1.471150171952617380e-01
1.471150171952617380e-01
1.379442109285441420e-01
1.379442109285441420e-01
1.444401987008024357e-01
1.444401987008024357e-01
1.444401987008024357e-01
1.459686664119220489e-01
1.459686664119220489e-01
1.375620940007642456e-01
1.375620940007642456e-01
1.375620940007642456e-01
1.375620940007642456e-01
1.375620940007642456e-01
1.379442109285441420e-01
1.379442109285441420e-01
1.379442109285441420e-01
1.494077187619411440e-01
1.494077187619411440e-01
1.352693924340848397e-01
1.352693924340848397e-01
1.352693924340848397e-01
1.406190294230034443e-01
1.406190294230034443e-01
1.440580817730225394e-01
1.440580817730225394e-01
1.440580817730225394e-01
1.620175773786778628e-01
1.620175773786778628e-01
1.494077187619411440e-01
1.494077187619411440e-01
1.494077187619411440e-01
1.436759648452426430e-01
1.436759648452426430e-01
1.383263278563240384e-01
1.383263278563240384e-01
1.383263278563240384e-01
1.627818112342376833e-01
1.627818112342376833e-01
1.513183034008406536e-01
1.513183034008406536e-01
1.513183034008406536e-01
1.608712265953381737e-01
1.608712265953381737e-01
1.555215896064195691e-01
1.555215896064195691e-01
1.555215896064195691e-01
1.704241497898356938e-01
1.704241497898356938e-01
1.593427588842185605e-01
1.593427588842185605e-01
1.593427588842185605e-01
1.746274359954146094e-01
1.746274359954146094e-01
1.815055406954527994e-01
1.815055406954527994e-01
1.815055406954527994e-01
1.922048146732900364e-01
1.922048146732900364e-01
1.853267099732518186e-01
1.853267099732518186e-01
1.853267099732518186e-01
1.960259839510890278e-01
1.960259839510890278e-01
1.983186855177684338e-01
1.983186855177684338e-01
1.983186855177684338e-01
2.158960641956438609e-01
2.158960641956438609e-01
2.101643102789453599e-01
2.101643102789453599e-01
2.220099350401222860e-01
2.220099350401222860e-01
2.220099350401222860e-01
2.350019105846389011e-01
2.350019105846389011e-01
2.449369507069163177e-01
2.449369507069163177e-01
2.449369507069163177e-01
2.564004585403133474e-01
2.564004585403133474e-01
2.705387848681696794e-01
2.705387848681696794e-01
2.705387848681696794e-01
2.747420710737485394e-01
2.747420710737485394e-01
2.934658005349636833e-01
2.934658005349636833e-01
2.934658005349636833e-01
2.976690867405425989e-01
2.976690867405425989e-01
3.003439052350019289e-01
3.003439052350019289e-01
3.003439052350019289e-01
3.087504776461597045e-01
3.087504776461597045e-01
3.209782193351165547e-01
3.209782193351165547e-01
3.209782193351165547e-01
3.290026748184944339e-01
3.290026748184944339e-01
3.332059610240733494e-01
3.332059610240733494e-01
3.332059610240733494e-01
3.622468475353458062e-01
3.622468475353458062e-01
3.557508597630875125e-01
3.557508597630875125e-01
3.557508597630875125e-01
3.706534199465036372e-01
3.706534199465036372e-01
3.821169277799006392e-01
3.821169277799006392e-01
3.821169277799006392e-01
3.909056171188383666e-01
3.909056171188383666e-01
3.909056171188383666e-01
3.909056171188383666e-01
3.909056171188383666e-01
3.989300726022163013e-01
3.989300726022163013e-01
4.126862820022926814e-01
4.126862820022926814e-01
4.126862820022926814e-01
4.065724111578142841e-01
4.065724111578142841e-01
4.172716851356514933e-01
4.172716851356514933e-01
4.172716851356514933e-01
4.142147497134123224e-01
4.142147497134123224e-01
4.191822697745510307e-01
4.191822697745510307e-01
4.191822697745510307e-01
4.241497898356897389e-01
4.241497898356897389e-01
4.283530760412686544e-01
4.283530760412686544e-01
4.283530760412686544e-01
4.363775315246465336e-01
4.363775315246465336e-01
4.424914023691249310e-01
4.424914023691249310e-01
4.424914023691249310e-01
4.474589224302636392e-01
4.474589224302636392e-01
4.413450515857852419e-01
4.413450515857852419e-01
4.413450515857852419e-01
4.501337409247229693e-01
4.501337409247229693e-01
4.470768055024837428e-01
4.470768055024837428e-01
4.470768055024837428e-01
4.566297286969812630e-01
4.566297286969812630e-01
4.486052732136033838e-01
4.486052732136033838e-01
4.486052732136033838e-01
4.489873901413832802e-01
4.489873901413832802e-01
4.535727932747420921e-01
4.535727932747420921e-01
4.535727932747420921e-01
4.508979747802827620e-01
4.508979747802827620e-01
4.623614826136797640e-01
4.623614826136797640e-01
4.623614826136797640e-01
4.497516239969430729e-01
4.497516239969430729e-01
4.604508979747802822e-01
4.604508979747802822e-01
4.604508979747802822e-01
4.573939625525410557e-01
4.573939625525410557e-01
4.531906763469621957e-01
4.531906763469621957e-01
4.531906763469621957e-01
4.554833779136415739e-01
4.554833779136415739e-01
4.535727932747420921e-01
4.535727932747420921e-01
4.535727932747420921e-01
4.516622086358425547e-01
4.516622086358425547e-01
4.528085594191822438e-01
4.528085594191822438e-01
4.528085594191822438e-01
4.615972487581199712e-01
4.615972487581199712e-01
4.520443255636224511e-01
4.520443255636224511e-01
4.520443255636224511e-01
4.428735192969048273e-01
4.428735192969048273e-01
4.508979747802827620e-01
4.508979747802827620e-01
4.508979747802827620e-01
4.463125716469239501e-01
4.463125716469239501e-01
4.570118456247611594e-01
4.570118456247611594e-01
4.570118456247611594e-01
4.585403133358808003e-01
4.585403133358808003e-01
4.421092854413450346e-01
4.421092854413450346e-01
4.421092854413450346e-01
4.444019870080244683e-01
4.444019870080244683e-01
4.474589224302636392e-01
4.474589224302636392e-01
4.474589224302636392e-01
4.363775315246465336e-01
4.363775315246465336e-01
4.451662208635842610e-01
4.451662208635842610e-01
4.451662208635842610e-01
4.333205961024073627e-01
4.333205961024073627e-01
4.379059992357661191e-01
4.379059992357661191e-01
4.379059992357661191e-01
4.363775315246465336e-01
4.363775315246465336e-01
4.424914023691249310e-01
4.424914023691249310e-01
4.424914023691249310e-01
4.363775315246465336e-01
4.363775315246465336e-01
4.241497898356897389e-01
4.241497898356897389e-01
4.241497898356897389e-01
4.367596484524264300e-01
4.367596484524264300e-01
4.184180359189912379e-01
4.184180359189912379e-01
4.184180359189912379e-01
4.337027130301872591e-01
4.337027130301872591e-01
4.233855559801299462e-01
4.233855559801299462e-01
4.233855559801299462e-01
4.207107374856706161e-01
4.207107374856706161e-01
4.291173098968284472e-01
4.291173098968284472e-01
4.291173098968284472e-01
4.222392051967902016e-01
4.222392051967902016e-01
4.214749713412304089e-01
4.214749713412304089e-01
4.214749713412304089e-01
4.294994268246083435e-01
4.294994268246083435e-01
4.222392051967902016e-01
4.222392051967902016e-01
4.222392051967902016e-01
4.184180359189912379e-01
4.184180359189912379e-01
4.252961406190294280e-01
4.252961406190294280e-01
4.252961406190294280e-01
4.184180359189912379e-01
4.184180359189912379e-01
4.188001528467711343e-01
4.188001528467711343e-01
4.188001528467711343e-01
4.165074512800917006e-01
4.165074512800917006e-01
4.176538020634313897e-01
4.176538020634313897e-01
4.176538020634313897e-01
4.023691249522353686e-01
4.023691249522353686e-01
4.012227741688956795e-01
4.012227741688956795e-01
3.958731371799770749e-01
3.958731371799770749e-01
3.958731371799770749e-01
4.050439434466946986e-01
4.050439434466946986e-01
4.038975926633550095e-01
4.038975926633550095e-01
4.038975926633550095e-01
3.958731371799770749e-01
3.958731371799770749e-01
3.928162017577378484e-01
3.928162017577378484e-01
3.928162017577378484e-01
3.924340848299579521e-01
3.924340848299579521e-01
3.813526939243408465e-01
3.813526939243408465e-01
3.813526939243408465e-01
3.752388230798624491e-01
3.752388230798624491e-01
3.802063431410011574e-01
3.802063431410011574e-01
3.802063431410011574e-01
3.802063431410011574e-01
3.802063431410011574e-01
3.653037829575850326e-01
3.653037829575850326e-01
3.653037829575850326e-01
3.691249522353840518e-01
3.691249522353840518e-01
3.714176538020634299e-01
3.714176538020634299e-01
3.714176538020634299e-01
3.607183798242262207e-01
3.607183798242262207e-01
3.500191058463890115e-01
3.500191058463890115e-01
3.500191058463890115e-01
3.633931983186854953e-01
3.633931983186854953e-01
3.580435613297668906e-01
3.580435613297668906e-01
3.580435613297668906e-01
3.484906381352693705e-01
3.484906381352693705e-01
3.412304165074512841e-01
3.412304165074512841e-01
3.412304165074512841e-01
3.458158196408100959e-01
3.458158196408100959e-01
3.362628964463125758e-01
3.362628964463125758e-01
3.362628964463125758e-01
3.351165456629728867e-01
3.351165456629728867e-01
3.194497516239969692e-01
3.194497516239969692e-01
3.194497516239969692e-01
3.270920901795949520e-01
3.270920901795949520e-01
3.091325945739396008e-01
3.091325945739396008e-01
3.091325945739396008e-01
3.133358807795185164e-01
3.133358807795185164e-01
3.018723729461215144e-01
3.018723729461215144e-01
3.018723729461215144e-01
2.953763851738632207e-01
2.953763851738632207e-01
3.026366068016813071e-01
3.026366068016813071e-01
3.026366068016813071e-01
2.938479174627435797e-01
2.938479174627435797e-01
2.976690867405425989e-01
2.976690867405425989e-01
2.976690867405425989e-01
2.961406190294230134e-01
2.961406190294230134e-01
2.888803974016048715e-01
2.888803974016048715e-01
2.888803974016048715e-01
2.953763851738632207e-01
2.953763851738632207e-01
2.839128773404661632e-01
2.839128773404661632e-01
2.839128773404661632e-01
2.713030187237294721e-01
2.713030187237294721e-01
2.800917080626671996e-01
2.800917080626671996e-01
2.800917080626671996e-01
2.640427970959113302e-01
2.640427970959113302e-01
2.777990064959877659e-01
2.777990064959877659e-01
2.777990064959877659e-01
2.644249140236912266e-01
2.644249140236912266e-01
2.789453572793274549e-01
2.789453572793274549e-01
2.789453572793274549e-01
2.594573939625525183e-01
2.594573939625525183e-01
2.686282002292701421e-01
2.686282002292701421e-01
2.686282002292701421e-01
2.548719908291937064e-01
2.548719908291937064e-01
2.487581199847153091e-01
2.487581199847153091e-01
2.487581199847153091e-01
2.678639663737103493e-01
2.678639663737103493e-01
2.483760030569354127e-01
2.483760030569354127e-01
2.483760030569354127e-01
2.586931601069927256e-01
2.586931601069927256e-01
2.476117692013756200e-01
2.476117692013756200e-01
2.476117692013756200e-01
2.418800152846771190e-01
2.418800152846771190e-01
2.437905999235766008e-01
2.437905999235766008e-01
2.437905999235766008e-01
2.445548337791364213e-01
2.445548337791364213e-01
2.395873137179977130e-01
2.395873137179977130e-01
2.395873137179977130e-01
2.483760030569354127e-01
2.483760030569354127e-01
2.441727168513565249e-01
2.441727168513565249e-01
2.441727168513565249e-01
2.414978983568972226e-01
2.414978983568972226e-01
2.510508215513947428e-01
2.510508215513947428e-01
2.510508215513947428e-01
2.548719908291937064e-01
2.548719908291937064e-01
2.548719908291937064e-01
2.548719908291937064e-01
2.548719908291937064e-01
2.483760030569354127e-01
2.483760030569354127e-01
2.468475353458158272e-01
2.468475353458158272e-01
2.468475353458158272e-01
2.376767290790982035e-01
2.376767290790982035e-01
2.388230798624378926e-01
2.388230798624378926e-01
2.388230798624378926e-01
2.457011845624761104e-01
2.457011845624761104e-01
2.453190676346962140e-01
2.453190676346962140e-01
2.453190676346962140e-01
2.350019105846389011e-01
2.350019105846389011e-01
2.422621322124570153e-01
2.422621322124570153e-01
2.422621322124570153e-01
2.376767290790982035e-01
2.376767290790982035e-01
2.403515475735575058e-01
2.403515475735575058e-01
2.403515475735575058e-01
2.361482613679785902e-01
2.361482613679785902e-01
2.307986243790599856e-01
2.307986243790599856e-01
2.307986243790599856e-01
2.441727168513565249e-01
2.441727168513565249e-01
2.392051967902178167e-01
2.392051967902178167e-01
2.392051967902178167e-01
2.380588460068780998e-01
2.380588460068780998e-01
2.246847535345815883e-01
2.246847535345815883e-01
2.246847535345815883e-01
2.239205196790217678e-01
2.239205196790217678e-01
2.357661444401986939e-01
2.357661444401986939e-01
2.357661444401986939e-01
2.307986243790599856e-01
2.307986243790599856e-01
2.227741688956820787e-01
2.227741688956820787e-01
2.227741688956820787e-01
2.361482613679785902e-01
2.361482613679785902e-01
2.262132212457011737e-01
2.262132212457011737e-01
2.223920519679021823e-01
2.223920519679021823e-01
2.223920519679021823e-01
2.212457011845624655e-01
2.212457011845624655e-01
2.178066488345433704e-01
2.178066488345433704e-01
2.178066488345433704e-01
2.338555598012991843e-01
2.338555598012991843e-01
2.208635842567825691e-01
2.208635842567825691e-01
2.208635842567825691e-01
2.258311043179212774e-01
2.258311043179212774e-01
2.250668704623614846e-01
2.250668704623614846e-01
2.250668704623614846e-01
2.151318303400840681e-01
2.151318303400840681e-01
2.220099350401222860e-01
2.220099350401222860e-01
2.220099350401222860e-01
2.086358425678257467e-01
2.086358425678257467e-01
2.071073748567061612e-01
2.071073748567061612e-01
2.071073748567061612e-01
2.208635842567825691e-01
2.208635842567825691e-01
2.013756209400076325e-01
2.013756209400076325e-01
2.013756209400076325e-01
2.013756209400076325e-01
2.013756209400076325e-01
2.032862055789071420e-01
2.032862055789071420e-01
2.032862055789071420e-01
2.036683225066870384e-01
2.036683225066870384e-01
2.078716087122659539e-01
2.078716087122659539e-01
2.078716087122659539e-01
2.128391287734046622e-01
2.128391287734046622e-01
2.036683225066870384e-01
2.036683225066870384e-01
2.036683225066870384e-01
2.082537256400458503e-01
2.082537256400458503e-01
1.994650363011081506e-01
1.994650363011081506e-01
1.994650363011081506e-01
2.132212457011845586e-01
2.132212457011845586e-01
2.013756209400076325e-01
2.013756209400076325e-01
2.013756209400076325e-01
1.941153993121895183e-01
1.941153993121895183e-01
2.051967902178066516e-01
2.051967902178066516e-01
2.051967902178066516e-01
1.849445930454719222e-01
1.849445930454719222e-01
1.941153993121895183e-01
1.941153993121895183e-01
1.941153993121895183e-01
1.868551776843714041e-01
1.868551776843714041e-01
2.044325563622468589e-01
2.044325563622468589e-01
2.044325563622468589e-01
1.914405808177302160e-01
1.914405808177302160e-01
2.006113870844478397e-01
2.006113870844478397e-01
2.006113870844478397e-01
1.967902178066488483e-01
1.967902178066488483e-01
1.799770729843332140e-01
1.799770729843332140e-01
1.799770729843332140e-01
1.776843714176538080e-01
1.776843714176538080e-01
1.818876576232326958e-01
1.818876576232326958e-01
1.818876576232326958e-01
1.723347344287352034e-01
1.723347344287352034e-01
1.895299961788307341e-01
1.895299961788307341e-01
1.895299961788307341e-01
1.925869316010699328e-01
1.925869316010699328e-01
1.719526175009552793e-01
1.719526175009552793e-01
1.719526175009552793e-01
1.769201375620939876e-01
1.769201375620939876e-01
1.727168513565150998e-01
1.727168513565150998e-01
1.727168513565150998e-01
1.688956820787160806e-01
1.688956820787160806e-01
1.719526175009552793e-01
1.719526175009552793e-01
1.719526175009552793e-01
1.880015284677111209e-01
1.880015284677111209e-01
1.742453190676346853e-01
1.742453190676346853e-01
1.742453190676346853e-01
1.708062667176155902e-01
1.708062667176155902e-01
1.681314482231562879e-01
1.681314482231562879e-01
1.681314482231562879e-01
1.868551776843714041e-01
1.868551776843714041e-01
1.811234237676729031e-01
1.811234237676729031e-01
1.811234237676729031e-01
1.811234237676729031e-01
1.811234237676729031e-01
1.784486052732136008e-01
1.784486052732136008e-01
1.784486052732136008e-01
1.650745128009170892e-01
1.650745128009170892e-01
1.639281620175773724e-01
1.639281620175773724e-01
1.639281620175773724e-01
1.746274359954146094e-01
1.746274359954146094e-01
1.612533435231180701e-01
1.612533435231180701e-01
1.612533435231180701e-01
1.623996943064577869e-01
1.623996943064577869e-01
1.601069927397783810e-01
1.601069927397783810e-01
1.601069927397783810e-01
1.643102789453572687e-01
1.643102789453572687e-01
1.715705005731753829e-01
1.715705005731753829e-01
1.715705005731753829e-01
1.692777990064959770e-01
1.692777990064959770e-01
1.539931218952999559e-01
1.539931218952999559e-01
1.539931218952999559e-01
1.536110049675200595e-01
1.536110049675200595e-01
1.677493312953763915e-01
1.677493312953763915e-01
1.677493312953763915e-01
1.654566297286969856e-01
1.654566297286969856e-01
1.597248758119984846e-01
1.597248758119984846e-01
1.597248758119984846e-01
1.501719526175009645e-01
1.501719526175009645e-01
1.646923958731371929e-01
1.646923958731371929e-01
1.646923958731371929e-01
1.581964081008788714e-01
1.581964081008788714e-01
1.608712265953381737e-01
1.608712265953381737e-01
1.608712265953381737e-01
1.581964081008788714e-01
1.581964081008788714e-01
1.578142911730989750e-01
1.578142911730989750e-01
1.578142911730989750e-01
1.532288880397401631e-01
1.532288880397401631e-01
1.455865494841421526e-01
1.455865494841421526e-01
1.455865494841421526e-01
1.459686664119220489e-01
1.459686664119220489e-01
1.448223156285823598e-01
1.448223156285823598e-01
1.448223156285823598e-01
1.581964081008788714e-01
1.581964081008788714e-01
1.455865494841421526e-01
1.455865494841421526e-01
1.455865494841421526e-01
1.402369124952235480e-01
1.402369124952235480e-01
1.482613679786014549e-01
1.482613679786014549e-01
1.482613679786014549e-01
1.528467711119602668e-01
1.528467711119602668e-01
1.398547955674436516e-01
1.398547955674436516e-01
1.463507833397019453e-01
1.463507833397019453e-01
1.463507833397019453e-01
1.490256018341612476e-01
1.490256018341612476e-01
1.524646541841803704e-01
1.524646541841803704e-01
1.524646541841803704e-01
1.410011463507833407e-01
1.410011463507833407e-01
1.536110049675200595e-01
1.536110049675200595e-01
1.536110049675200595e-01
1.429117309896828503e-01
1.429117309896828503e-01
1.494077187619411440e-01
1.494077187619411440e-01
1.494077187619411440e-01
1.471150171952617380e-01
1.471150171952617380e-01
1.494077187619411440e-01
1.494077187619411440e-01
1.494077187619411440e-01
1.417653802063431334e-01
1.417653802063431334e-01
1.394726786396637275e-01
1.394726786396637275e-01
1.394726786396637275e-01
1.486434849063813513e-01
1.486434849063813513e-01
1.562858234619793618e-01
1.562858234619793618e-01
1.562858234619793618e-01
1.520825372564004463e-01
1.520825372564004463e-01
1.566679403897592582e-01
1.566679403897592582e-01
1.566679403897592582e-01
1.432938479174627466e-01
1.432938479174627466e-01
1.394726786396637275e-01
1.394726786396637275e-01
1.394726786396637275e-01
1.398547955674436516e-01
1.398547955674436516e-01
1.398547955674436516e-01
1.398547955674436516e-01
1.398547955674436516e-01
1.524646541841803704e-01
1.524646541841803704e-01
1.406190294230034443e-01
1.406190294230034443e-01
1.406190294230034443e-01
1.474971341230416622e-01
1.474971341230416622e-01
1.555215896064195691e-01
1.555215896064195691e-01
1.555215896064195691e-01
1.474971341230416622e-01
1.474971341230416622e-01
1.574321742453190787e-01
1.574321742453190787e-01
1.574321742453190787e-01
1.463507833397019453e-01
1.463507833397019453e-01
1.517004203286205499e-01
1.517004203286205499e-01
1.517004203286205499e-01
1.440580817730225394e-01
1.440580817730225394e-01
1.524646541841803704e-01
1.524646541841803704e-01
1.524646541841803704e-01
1.604891096675582773e-01
1.604891096675582773e-01
1.513183034008406536e-01
1.513183034008406536e-01
1.513183034008406536e-01
1.566679403897592582e-01
1.566679403897592582e-01
1.398547955674436516e-01
1.398547955674436516e-01
1.398547955674436516e-01
1.559037065341994654e-01
1.559037065341994654e-01
1.570500573175391545e-01
1.570500573175391545e-01
1.570500573175391545e-01
1.543752388230798522e-01
1.543752388230798522e-01
1.520825372564004463e-01
1.520825372564004463e-01
1.520825372564004463e-01
1.402369124952235480e-01
1.402369124952235480e-01
1.486434849063813513e-01
1.486434849063813513e-01
1.486434849063813513e-01
1.421474971341230298e-01
1.421474971341230298e-01
1.494077187619411440e-01
1.494077187619411440e-01
1.494077187619411440e-01
1.482613679786014549e-01
1.482613679786014549e-01
1.520825372564004463e-01
1.520825372564004463e-01
1.520825372564004463e-01
1.425296140619029539e-01
1.425296140619029539e-01
1.417653802063431334e-01
1.417653802063431334e-01
1.417653802063431334e-01
1.513183034008406536e-01
1.513183034008406536e-01
1.520825372564004463e-01
1.520825372564004463e-01
1.520825372564004463e-01
1.432938479174627466e-01
1.432938479174627466e-01
1.467329002674818417e-01
1.467329002674818417e-01
1.467329002674818417e-01
1.432938479174627466e-01
1.432938479174627466e-01
1.455865494841421526e-01
1.455865494841421526e-01
1.455865494841421526e-01
1.387084447841039347e-01
1.387084447841039347e-01
1.497898356897210681e-01
1.497898356897210681e-01
1.497898356897210681e-01
1.367978601452044252e-01
1.367978601452044252e-01
1.425296140619029539e-01
1.425296140619029539e-01
1.425296140619029539e-01
1.371799770729843215e-01
1.371799770729843215e-01
1.536110049675200595e-01
1.536110049675200595e-01
1.536110049675200595e-01
1.367978601452044252e-01
1.367978601452044252e-01
1.421474971341230298e-01
1.421474971341230298e-01
1.421474971341230298e-01
1.410011463507833407e-01
1.410011463507833407e-01
1.478792510508215585e-01
1.478792510508215585e-01
1.478792510508215585e-01
1.383263278563240384e-01
1.383263278563240384e-01
1.398547955674436516e-01
1.398547955674436516e-01
1.398547955674436516e-01
1.532288880397401631e-01
1.532288880397401631e-01
1.513183034008406536e-01
1.513183034008406536e-01
1.513183034008406536e-01
1.429117309896828503e-01
1.429117309896828503e-01
1.383263278563240384e-01
1.383263278563240384e-01
1.383263278563240384e-01
1.314482231562858205e-01
1.314482231562858205e-01
1.559037065341994654e-01
1.559037065341994654e-01
1.559037065341994654e-01
1.417653802063431334e-01
1.417653802063431334e-01
1.333588077951853301e-01
1.333588077951853301e-01
1.333588077951853301e-01
1.429117309896828503e-01
1.429117309896828503e-01
1.574321742453190787e-01
1.574321742453190787e-01
1.574321742453190787e-01
1.367978601452044252e-01
1.367978601452044252e-01
1.474971341230416622e-01
1.474971341230416622e-01
1.474971341230416622e-01
1.390905617118838311e-01
1.390905617118838311e-01
1.413832632785632371e-01
1.413832632785632371e-01
1.413832632785632371e-01
1.551394726786396727e-01
1.551394726786396727e-01
1.551394726786396727e-01
1.551394726786396727e-01
1.551394726786396727e-01
1.421474971341230298e-01
1.421474971341230298e-01
1.440580817730225394e-01
1.440580817730225394e-01
1.440580817730225394e-01
1.402369124952235480e-01
1.402369124952235480e-01
1.432938479174627466e-01
1.432938479174627466e-01
1.455865494841421526e-01
1.455865494841421526e-01
1.455865494841421526e-01
1.566679403897592582e-01
1.566679403897592582e-01
1.700420328620557975e-01
1.700420328620557975e-01
1.700420328620557975e-01
1.727168513565150998e-01
1.727168513565150998e-01
1.761559037065341948e-01
1.761559037065341948e-01
1.761559037065341948e-01
1.738632021398547889e-01
1.738632021398547889e-01
1.834161253343523090e-01
1.834161253343523090e-01
1.834161253343523090e-01
1.964081008788689242e-01
1.964081008788689242e-01
1.971723347344287447e-01
1.971723347344287447e-01
1.971723347344287447e-01
1.918226977455101123e-01
1.918226977455101123e-01
2.132212457011845586e-01
2.132212457011845586e-01
2.132212457011845586e-01
2.327092090179594952e-01
2.327092090179594952e-01
2.304165074512800893e-01
2.304165074512800893e-01
2.304165074512800893e-01
2.479938861291555163e-01
2.479938861291555163e-01
2.418800152846771190e-01
2.418800152846771190e-01
2.418800152846771190e-01
2.632785632403515375e-01
2.632785632403515375e-01
2.705387848681696794e-01
2.705387848681696794e-01
2.705387848681696794e-01
2.774168895682078695e-01
2.774168895682078695e-01
2.969048528849828061e-01
2.969048528849828061e-01
2.969048528849828061e-01
2.957585021016431170e-01
2.957585021016431170e-01
3.137179977072984127e-01
3.137179977072984127e-01
3.137179977072984127e-01
3.152464654184180537e-01
3.152464654184180537e-01
3.339701948796331421e-01
3.339701948796331421e-01
3.339701948796331421e-01
3.393198318685518022e-01
3.393198318685518022e-01
3.507833397019488042e-01
3.507833397019488042e-01
3.507833397019488042e-01
3.580435613297668906e-01
3.580435613297668906e-01
3.702713030187237409e-01
3.702713030187237409e-01
3.702713030187237409e-01
3.744745892243026564e-01
3.744745892243026564e-01
3.786778754298815164e-01
3.786778754298815164e-01
3.786778754298815164e-01
3.779136415743217237e-01
3.779136415743217237e-01
3.905235001910584702e-01
3.905235001910584702e-01
3.905235001910584702e-01
4.054260603744745950e-01
4.054260603744745950e-01
3.993121895299961976e-01
3.993121895299961976e-01
3.993121895299961976e-01
4.119220481467328887e-01
4.119220481467328887e-01
4.256782575468093244e-01
4.256782575468093244e-01
4.256782575468093244e-01
4.203286205578907198e-01
4.203286205578907198e-01
4.203286205578907198e-01
4.203286205578907198e-01
4.203286205578907198e-01
4.325563622468475145e-01
4.325563622468475145e-01
4.237676729079098426e-01
4.237676729079098426e-01
4.237676729079098426e-01
4.444019870080244683e-01
4.444019870080244683e-01
4.459304547191440538e-01
4.459304547191440538e-01
4.459304547191440538e-01
4.409629346580053455e-01
4.409629346580053455e-01
4.459304547191440538e-01
4.459304547191440538e-01
4.459304547191440538e-01
4.505158578525028656e-01
4.505158578525028656e-01
4.451662208635842610e-01
4.451662208635842610e-01
4.451662208635842610e-01
4.413450515857852419e-01
4.413450515857852419e-01
4.470768055024837428e-01
4.470768055024837428e-01
4.470768055024837428e-01
4.524264424914023475e-01
4.524264424914023475e-01
4.440198700802445719e-01
4.440198700802445719e-01
4.440198700802445719e-01
4.631257164692396122e-01
4.631257164692396122e-01
4.554833779136415739e-01
4.554833779136415739e-01
4.554833779136415739e-01
4.638899503247994049e-01
4.638899503247994049e-01
4.466946885747038465e-01
4.466946885747038465e-01
4.466946885747038465e-01
4.489873901413832802e-01
4.489873901413832802e-01
4.547191440580817812e-01
4.547191440580817812e-01
4.547191440580817812e-01
4.600687810470003858e-01
4.600687810470003858e-01
4.531906763469621957e-01
4.531906763469621957e-01
4.531906763469621957e-01
4.474589224302636392e-01
4.474589224302636392e-01
4.593045471914405931e-01
4.593045471914405931e-01
4.593045471914405931e-01
4.547191440580817812e-01
4.547191440580817812e-01
4.508979747802827620e-01
4.508979747802827620e-01
4.508979747802827620e-01
4.524264424914023475e-01
4.524264424914023475e-01
4.428735192969048273e-01
4.428735192969048273e-01
4.428735192969048273e-01
4.409629346580053455e-01
4.409629346580053455e-01
4.482231562858234875e-01
4.482231562858234875e-01
4.482231562858234875e-01
4.482231562858234875e-01
4.482231562858234875e-01
4.405808177302254491e-01
4.405808177302254491e-01
4.405808177302254491e-01
4.543370271303018848e-01
4.543370271303018848e-01
4.337027130301872591e-01
4.337027130301872591e-01
4.337027130301872591e-01
4.371417653802063263e-01
4.371417653802063263e-01
4.367596484524264300e-01
4.367596484524264300e-01
4.367596484524264300e-01
4.337027130301872591e-01
4.337027130301872591e-01
4.359954145968666372e-01
4.359954145968666372e-01
4.359954145968666372e-01
4.428735192969048273e-01
4.428735192969048273e-01
4.310278945357279290e-01
4.310278945357279290e-01
4.310278945357279290e-01
4.272067252579289098e-01
4.272067252579289098e-01
4.371417653802063263e-01
4.371417653802063263e-01
4.371417653802063263e-01
4.325563622468475145e-01
4.325563622468475145e-01
4.352311807413068445e-01
4.352311807413068445e-01
4.352311807413068445e-01
4.237676729079098426e-01
4.237676729079098426e-01
4.325563622468475145e-01
4.325563622468475145e-01
4.302636606801681363e-01
4.302636606801681363e-01
4.302636606801681363e-01
4.314100114635078254e-01
4.314100114635078254e-01
4.325563622468475145e-01
4.325563622468475145e-01
4.325563622468475145e-01
4.145968666411922188e-01
4.145968666411922188e-01
4.310278945357279290e-01
4.310278945357279290e-01
4.310278945357279290e-01
4.191822697745510307e-01
4.191822697745510307e-01
4.199465036301108234e-01
4.199465036301108234e-01
4.199465036301108234e-01
4.069545280855941805e-01
4.069545280855941805e-01
4.161253343523118042e-01
4.161253343523118042e-01
4.161253343523118042e-01
4.165074512800917006e-01
4.165074512800917006e-01
3.993121895299961976e-01
3.993121895299961976e-01
3.993121895299961976e-01
4.138326327856324260e-01
4.138326327856324260e-01
3.985479556744364049e-01
3.985479556744364049e-01
3.985479556744364049e-01
4.004585403133358867e-01
4.004585403133358867e-01
3.951089033244172821e-01
3.951089033244172821e-01
3.951089033244172821e-01
3.989300726022163013e-01
3.989300726022163013e-01
4.046618265189148023e-01
4.046618265189148023e-01
4.046618265189148023e-01
4.004585403133358867e-01
4.004585403133358867e-01
3.947267863966373858e-01
3.947267863966373858e-01
3.947267863966373858e-01
3.905235001910584702e-01
3.905235001910584702e-01
3.912877340466182630e-01
3.912877340466182630e-01
3.912877340466182630e-01
3.909056171188383666e-01
3.909056171188383666e-01
3.813526939243408465e-01
3.813526939243408465e-01
3.813526939243408465e-01
3.794421092854413646e-01
3.794421092854413646e-01
3.767672907909820346e-01
3.767672907909820346e-01
3.767672907909820346e-01
3.675964845242644108e-01
3.675964845242644108e-01
3.706534199465036372e-01
3.706534199465036372e-01
3.706534199465036372e-01
3.626289644631257025e-01
3.626289644631257025e-01
3.706534199465036372e-01
3.706534199465036372e-01
3.706534199465036372e-01
3.591899121131066352e-01
3.591899121131066352e-01
3.637753152464653916e-01
3.637753152464653916e-01
3.637753152464653916e-01
3.419946503630110768e-01
3.419946503630110768e-01
3.442873519296905105e-01
3.442873519296905105e-01
3.442873519296905105e-01
3.400840657241115950e-01
3.400840657241115950e-01
3.374092472296522649e-01
3.374092472296522649e-01
3.374092472296522649e-01
3.286205578907145375e-01
3.286205578907145375e-01
3.335880779518532457e-01
3.335880779518532457e-01
3.335880779518532457e-01
3.240351547573557256e-01
3.240351547573557256e-01
3.213603362628964510e-01
3.213603362628964510e-01
3.213603362628964510e-01
3.137179977072984127e-01
3.137179977072984127e-01
3.079862437905999117e-01
3.079862437905999117e-01
3.079862437905999117e-01
3.041650745128008926e-01
3.041650745128008926e-01
2.991975544516621843e-01
2.991975544516621843e-01
2.991975544516621843e-01
3.011081390905617217e-01
3.011081390905617217e-01
3.087504776461597045e-01
3.087504776461597045e-01
3.087504776461597045e-01
3.007260221627818253e-01
3.007260221627818253e-01
2.881161635460450787e-01
2.881161635460450787e-01
2.881161635460450787e-01
2.827665265571264741e-01
2.827665265571264741e-01
2.842949942682460596e-01
2.842949942682460596e-01
2.842949942682460596e-01
2.777990064959877659e-01
2.777990064959877659e-01
2.850592281238059078e-01
2.850592281238059078e-01
2.850592281238059078e-01
2.709209017959495758e-01
2.709209017959495758e-01
2.739778372181887467e-01
2.739778372181887467e-01
2.739778372181887467e-01
2.640427970959113302e-01
2.640427970959113302e-01
2.804738249904470959e-01
2.804738249904470959e-01
2.804738249904470959e-01
2.770347726404279731e-01
2.770347726404279731e-01
2.701566679403897830e-01
2.701566679403897830e-01
2.701566679403897830e-01
2.747420710737485394e-01
2.747420710737485394e-01
2.625143293847917447e-01
2.625143293847917447e-01
2.625143293847917447e-01
2.690103171570500384e-01
2.690103171570500384e-01
2.544898739014138100e-01
2.544898739014138100e-01
2.544898739014138100e-01
2.583110431792128292e-01
2.583110431792128292e-01
2.571646923958731401e-01
2.571646923958731401e-01
2.571646923958731401e-01
2.457011845624761104e-01
2.457011845624761104e-01
2.479938861291555163e-01
2.479938861291555163e-01
2.479938861291555163e-01
2.521971723347344319e-01
2.521971723347344319e-01
2.690103171570500384e-01
2.690103171570500384e-01
2.690103171570500384e-01
2.457011845624761104e-01
2.457011845624761104e-01
2.445548337791364213e-01
2.445548337791364213e-01
2.445548337791364213e-01
2.437905999235766008e-01
2.437905999235766008e-01
2.472296522735957236e-01
2.472296522735957236e-01
2.472296522735957236e-01
2.544898739014138100e-01
2.544898739014138100e-01
2.407336645013374021e-01
2.407336645013374021e-01
2.407336645013374021e-01
2.472296522735957236e-01
2.472296522735957236e-01
2.487581199847153091e-01
2.487581199847153091e-01
2.487581199847153091e-01
2.560183416125334510e-01
2.560183416125334510e-01
2.407336645013374021e-01
2.407336645013374021e-01
2.407336645013374021e-01
2.350019105846389011e-01
2.350019105846389011e-01
2.460833014902560067e-01
2.460833014902560067e-01
2.460833014902560067e-01
2.327092090179594952e-01
2.327092090179594952e-01
2.388230798624378926e-01
2.388230798624378926e-01
2.388230798624378926e-01
2.361482613679785902e-01
2.361482613679785902e-01
2.372946121513183071e-01
2.372946121513183071e-01
2.414978983568972226e-01
2.414978983568972226e-01
2.414978983568972226e-01
2.330913259457393916e-01
2.330913259457393916e-01
2.449369507069163177e-01
2.449369507069163177e-01
2.449369507069163177e-01
2.445548337791364213e-01
2.445548337791364213e-01
2.434084829957967044e-01
2.434084829957967044e-01
2.434084829957967044e-01
2.323270920901795988e-01
2.323270920901795988e-01
2.338555598012991843e-01
2.338555598012991843e-01
2.338555598012991843e-01
2.411157814291172985e-01
2.411157814291172985e-01
2.334734428735192879e-01
2.334734428735192879e-01
2.334734428735192879e-01
2.449369507069163177e-01
2.449369507069163177e-01
2.330913259457393916e-01
2.330913259457393916e-01
2.330913259457393916e-01
2.430263660680168081e-01
2.430263660680168081e-01
2.243026366068016919e-01
2.243026366068016919e-01
2.243026366068016919e-01
2.292701566679404002e-01
2.292701566679404002e-01
2.346197936568590048e-01
2.346197936568590048e-01
2.346197936568590048e-01
2.258311043179212774e-01
2.258311043179212774e-01
2.269774551012609942e-01
2.269774551012609942e-01
2.269774551012609942e-01
2.288880397401604760e-01
2.288880397401604760e-01
2.158960641956438609e-01
2.158960641956438609e-01
2.158960641956438609e-01
2.250668704623614846e-01
2.250668704623614846e-01
2.334734428735192879e-01
2.334734428735192879e-01
2.334734428735192879e-01
2.311807413068398820e-01
2.311807413068398820e-01
2.227741688956820787e-01
2.227741688956820787e-01
2.227741688956820787e-01
2.166602980512036813e-01
2.166602980512036813e-01
2.288880397401604760e-01
2.288880397401604760e-01
2.288880397401604760e-01
2.189529996178830595e-01
2.189529996178830595e-01
2.223920519679021823e-01
2.223920519679021823e-01
2.223920519679021823e-01
2.063431410011463407e-01
2.063431410011463407e-01
2.055789071455865480e-01
2.055789071455865480e-01
2.055789071455865480e-01
2.040504394344669348e-01
2.040504394344669348e-01
2.155139472678639645e-01
2.155139472678639645e-01
2.155139472678639645e-01
2.013756209400076325e-01
2.013756209400076325e-01
1.948796331677493388e-01
1.948796331677493388e-01
1.948796331677493388e-01
1.990829193733282265e-01
1.990829193733282265e-01
2.116927779900649731e-01
2.116927779900649731e-01
2.116927779900649731e-01
2.021398547955674529e-01
2.021398547955674529e-01
1.952617500955292351e-01
1.952617500955292351e-01
1.952617500955292351e-01
2.021398547955674529e-01
2.021398547955674529e-01
2.071073748567061612e-01
2.071073748567061612e-01
2.071073748567061612e-01
1.948796331677493388e-01
1.948796331677493388e-01
1.944975162399694424e-01
1.944975162399694424e-01
1.944975162399694424e-01
1.998471532288880470e-01
1.998471532288880470e-01
1.902942300343905269e-01
1.902942300343905269e-01
1.902942300343905269e-01
1.937332823844096219e-01
1.937332823844096219e-01
1.857088269010317150e-01
1.857088269010317150e-01
1.857088269010317150e-01
2.009935040122277361e-01
2.009935040122277361e-01
1.990829193733282265e-01
1.990829193733282265e-01
1.990829193733282265e-01
1.807413068398930067e-01
1.807413068398930067e-01
1.830340084065724127e-01
1.830340084065724127e-01
1.830340084065724127e-01
1.941153993121895183e-01
1.941153993121895183e-01
1.784486052732136008e-01
1.784486052732136008e-01
1.784486052732136008e-01
1.967902178066488483e-01
1.967902178066488483e-01
1.857088269010317150e-01
1.857088269010317150e-01
1.857088269010317150e-01
1.887657623232709136e-01
1.887657623232709136e-01
1.734810852120748925e-01
1.734810852120748925e-01
1.734810852120748925e-01
1.872372946121513282e-01
1.872372946121513282e-01
1.734810852120748925e-01
1.734810852120748925e-01
1.734810852120748925e-01
1.788307222009934971e-01
1.788307222009934971e-01
1.711883836453954866e-01
1.711883836453954866e-01
1.711883836453954866e-01
1.788307222009934971e-01
1.788307222009934971e-01
1.746274359954146094e-01
1.746274359954146094e-01
1.746274359954146094e-01
1.681314482231562879e-01
1.681314482231562879e-01
1.822697745510126199e-01
1.822697745510126199e-01
1.822697745510126199e-01
1.773022544898739117e-01
1.773022544898739117e-01
1.746274359954146094e-01
1.746274359954146094e-01
1.746274359954146094e-01
1.708062667176155902e-01
1.708062667176155902e-01
1.666029805120366747e-01
1.666029805120366747e-01
1.666029805120366747e-01
1.658387466564768820e-01
1.658387466564768820e-01
1.669850974398165711e-01
1.669850974398165711e-01
1.669850974398165711e-01
1.746274359954146094e-01
1.746274359954146094e-01
1.639281620175773724e-01
1.639281620175773724e-01
1.639281620175773724e-01
1.746274359954146094e-01
1.746274359954146094e-01
1.788307222009934971e-01
1.788307222009934971e-01
1.788307222009934971e-01
1.650745128009170892e-01
1.650745128009170892e-01
1.635460450897974760e-01
1.635460450897974760e-01
1.635460450897974760e-01
1.769201375620939876e-01
1.769201375620939876e-01
1.677493312953763915e-01
1.677493312953763915e-01
1.677493312953763915e-01
1.727168513565150998e-01
1.727168513565150998e-01
1.608712265953381737e-01
1.608712265953381737e-01
1.608712265953381737e-01
1.734810852120748925e-01
1.734810852120748925e-01
1.631639281620175796e-01
1.631639281620175796e-01
1.627818112342376833e-01
1.627818112342376833e-01
1.627818112342376833e-01
1.708062667176155902e-01
1.708062667176155902e-01
1.700420328620557975e-01
1.700420328620557975e-01
1.700420328620557975e-01
1.608712265953381737e-01
1.608712265953381737e-01
1.696599159342759011e-01
1.696599159342759011e-01
1.696599159342759011e-01
1.539931218952999559e-01
1.539931218952999559e-01
1.616354604508979664e-01
1.616354604508979664e-01
1.616354604508979664e-01
1.497898356897210681e-01
1.497898356897210681e-01
1.677493312953763915e-01
1.677493312953763915e-01
1.677493312953763915e-01
1.555215896064195691e-01
1.555215896064195691e-01
1.486434849063813513e-01
1.486434849063813513e-01
1.486434849063813513e-01
1.658387466564768820e-01
1.658387466564768820e-01
1.509361864730607572e-01
1.509361864730607572e-01
1.509361864730607572e-01
1.536110049675200595e-01
1.536110049675200595e-01
1.566679403897592582e-01
1.566679403897592582e-01
1.566679403897592582e-01
1.627818112342376833e-01
1.627818112342376833e-01
1.589606419564386641e-01
1.589606419564386641e-01
1.589606419564386641e-01
1.551394726786396727e-01
1.551394726786396727e-01
1.539931218952999559e-01
1.539931218952999559e-01
1.539931218952999559e-01
1.509361864730607572e-01
1.509361864730607572e-01
1.494077187619411440e-01
1.494077187619411440e-01
1.494077187619411440e-01
1.547573557508597764e-01
1.547573557508597764e-01
1.459686664119220489e-01
1.459686664119220489e-01
1.459686664119220489e-01
