1.711883836453954866e-01
1.807413068398930067e-01
1.807413068398930067e-01
1.669850974398165711e-01
1.669850974398165711e-01
1.669850974398165711e-01
1.669850974398165711e-01
1.669850974398165711e-01
1.673672143675964952e-01
1.673672143675964952e-01
1.673672143675964952e-01
1.860909438288116113e-01
1.860909438288116113e-01
1.677493312953763915e-01
1.677493312953763915e-01
1.677493312953763915e-01
1.688956820787160806e-01
1.688956820787160806e-01
1.612533435231180701e-01
1.612533435231180701e-01
1.612533435231180701e-01
1.765380206343140912e-01
1.765380206343140912e-01
1.673672143675964952e-01
1.673672143675964952e-01
1.673672143675964952e-01
1.646923958731371929e-01
1.646923958731371929e-01
1.696599159342759011e-01
1.696599159342759011e-01
1.696599159342759011e-01
1.757737867787542985e-01
1.757737867787542985e-01
1.631639281620175796e-01
1.631639281620175796e-01
1.631639281620175796e-01
1.547573557508597764e-01
1.547573557508597764e-01
1.730989682842949962e-01
1.730989682842949962e-01
1.730989682842949962e-01
1.643102789453572687e-01
1.643102789453572687e-01
1.517004203286205499e-01
1.517004203286205499e-01
1.517004203286205499e-01
1.517004203286205499e-01
1.517004203286205499e-01
1.578142911730989750e-01
1.578142911730989750e-01
1.555215896064195691e-01
1.555215896064195691e-01
1.555215896064195691e-01
1.532288880397401631e-01
1.532288880397401631e-01
1.681314482231562879e-01
1.681314482231562879e-01
1.681314482231562879e-01
1.658387466564768820e-01
1.658387466564768820e-01
1.623996943064577869e-01
1.623996943064577869e-01
1.623996943064577869e-01
1.555215896064195691e-01
1.555215896064195691e-01
1.520825372564004463e-01
1.520825372564004463e-01
1.520825372564004463e-01
1.574321742453190787e-01
1.574321742453190787e-01
1.474971341230416622e-01
1.474971341230416622e-01
1.474971341230416622e-01
1.455865494841421526e-01
1.455865494841421526e-01
1.497898356897210681e-01
1.497898356897210681e-01
1.497898356897210681e-01
1.559037065341994654e-01
1.559037065341994654e-01
1.543752388230798522e-01
1.543752388230798522e-01
1.543752388230798522e-01
1.627818112342376833e-01
1.627818112342376833e-01
1.574321742453190787e-01
1.574321742453190787e-01
1.574321742453190787e-01
1.494077187619411440e-01
1.494077187619411440e-01
1.494077187619411440e-01
1.494077187619411440e-01
1.494077187619411440e-01
1.536110049675200595e-01
1.536110049675200595e-01
1.536110049675200595e-01
1.536110049675200595e-01
1.536110049675200595e-01
1.471150171952617380e-01
1.471150171952617380e-01
1.390905617118838311e-01
1.390905617118838311e-01
1.390905617118838311e-01
1.486434849063813513e-01
1.486434849063813513e-01
1.455865494841421526e-01
1.455865494841421526e-01
1.455865494841421526e-01
1.471150171952617380e-01
1.471150171952617380e-01
1.497898356897210681e-01
1.497898356897210681e-01
1.497898356897210681e-01
1.425296140619029539e-01
1.425296140619029539e-01
1.406190294230034443e-01
1.406190294230034443e-01
1.406190294230034443e-01
1.505540695452808608e-01
1.505540695452808608e-01
1.497898356897210681e-01
1.497898356897210681e-01
1.497898356897210681e-01
1.429117309896828503e-01
1.429117309896828503e-01
1.425296140619029539e-01
1.425296140619029539e-01
1.425296140619029539e-01
1.375620940007642456e-01
1.375620940007642456e-01
1.276270538784868291e-01
1.276270538784868291e-01
1.276270538784868291e-01
1.402369124952235480e-01
1.402369124952235480e-01
1.299197554451662073e-01
1.299197554451662073e-01
1.299197554451662073e-01
1.490256018341612476e-01
1.490256018341612476e-01
1.459686664119220489e-01
1.459686664119220489e-01
1.459686664119220489e-01
1.314482231562858205e-01
1.314482231562858205e-01
1.268628200229270087e-01
1.268628200229270087e-01
1.268628200229270087e-01
1.417653802063431334e-01
1.417653802063431334e-01
1.215131830340084040e-01
1.215131830340084040e-01
1.215131830340084040e-01
1.230416507451280034e-01
1.230416507451280034e-01
1.234237676729079136e-01
1.234237676729079136e-01
1.234237676729079136e-01
1.417653802063431334e-01
1.417653802063431334e-01
1.421474971341230298e-01
1.421474971341230298e-01
1.421474971341230298e-01
1.371799770729843215e-01
1.371799770729843215e-01
1.303018723729461315e-01
1.303018723729461315e-01
1.303018723729461315e-01
1.367978601452044252e-01
1.367978601452044252e-01
1.348872755063049156e-01
1.348872755063049156e-01
1.348872755063049156e-01
1.417653802063431334e-01
1.417653802063431334e-01
1.303018723729461315e-01
1.303018723729461315e-01
1.303018723729461315e-01
1.329766908674054338e-01
1.329766908674054338e-01
1.371799770729843215e-01
1.371799770729843215e-01
1.371799770729843215e-01
1.329766908674054338e-01
1.329766908674054338e-01
1.429117309896828503e-01
1.429117309896828503e-01
1.429117309896828503e-01
1.253343523118074232e-01
1.253343523118074232e-01
1.257164692395873196e-01
1.257164692395873196e-01
1.257164692395873196e-01
1.387084447841039347e-01
1.387084447841039347e-01
1.364157432174245288e-01
1.364157432174245288e-01
1.364157432174245288e-01
1.314482231562858205e-01
1.314482231562858205e-01
1.398547955674436516e-01
1.398547955674436516e-01
1.398547955674436516e-01
1.253343523118074232e-01
1.253343523118074232e-01
1.410011463507833407e-01
1.410011463507833407e-01
1.410011463507833407e-01
1.310661062285059242e-01
1.310661062285059242e-01
1.337409247229652265e-01
1.337409247229652265e-01
1.337409247229652265e-01
1.345051585785250192e-01
1.345051585785250192e-01
1.448223156285823598e-01
1.448223156285823598e-01
1.448223156285823598e-01
1.238058846006878100e-01
1.238058846006878100e-01
1.306839893007260278e-01
1.306839893007260278e-01
1.306839893007260278e-01
1.402369124952235480e-01
1.402369124952235480e-01
1.245701184562476166e-01
1.245701184562476166e-01
1.245701184562476166e-01
1.367978601452044252e-01
1.367978601452044252e-01
1.371799770729843215e-01
1.371799770729843215e-01
1.371799770729843215e-01
1.329766908674054338e-01
1.329766908674054338e-01
1.371799770729843215e-01
1.371799770729843215e-01
1.371799770729843215e-01
1.230416507451280034e-01
1.230416507451280034e-01
1.234237676729079136e-01
1.234237676729079136e-01
1.234237676729079136e-01
1.348872755063049156e-01
1.348872755063049156e-01
1.394726786396637275e-01
1.394726786396637275e-01
1.394726786396637275e-01
1.268628200229270087e-01
1.268628200229270087e-01
1.253343523118074232e-01
1.253343523118074232e-01
1.245701184562476166e-01
1.245701184562476166e-01
1.245701184562476166e-01
1.367978601452044252e-01
1.367978601452044252e-01
1.146350783339702001e-01
1.146350783339702001e-01
1.146350783339702001e-01
1.238058846006878100e-01
1.238058846006878100e-01
1.341230416507451229e-01
1.341230416507451229e-01
1.341230416507451229e-01
1.280091708062667255e-01
1.280091708062667255e-01
1.238058846006878100e-01
1.238058846006878100e-01
1.238058846006878100e-01
1.345051585785250192e-01
1.345051585785250192e-01
1.318303400840657169e-01
1.318303400840657169e-01
1.318303400840657169e-01
1.280091708062667255e-01
1.280091708062667255e-01
1.310661062285059242e-01
1.310661062285059242e-01
1.310661062285059242e-01
1.260985861673672159e-01
1.260985861673672159e-01
1.356515093618647361e-01
1.356515093618647361e-01
1.356515093618647361e-01
1.199847153228888047e-01
1.199847153228888047e-01
1.356515093618647361e-01
1.356515093618647361e-01
1.356515093618647361e-01
1.322124570118456133e-01
1.322124570118456133e-01
1.134887275506304971e-01
1.134887275506304971e-01
1.134887275506304971e-01
1.257164692395873196e-01
1.257164692395873196e-01
1.131066106228505869e-01
1.131066106228505869e-01
1.131066106228505869e-01
1.131066106228505869e-01
1.131066106228505869e-01
1.303018723729461315e-01
1.303018723729461315e-01
1.303018723729461315e-01
1.364157432174245288e-01
1.364157432174245288e-01
1.153993121895299928e-01
1.153993121895299928e-01
1.153993121895299928e-01
1.199847153228888047e-01
1.199847153228888047e-01
1.303018723729461315e-01
1.303018723729461315e-01
1.303018723729461315e-01
1.329766908674054338e-01
1.329766908674054338e-01
1.226595338173481070e-01
1.226595338173481070e-01
1.226595338173481070e-01
1.387084447841039347e-01
1.387084447841039347e-01
1.249522353840275130e-01
1.249522353840275130e-01
1.249522353840275130e-01
1.196025983951089083e-01
1.196025983951089083e-01
1.287734046618265182e-01
1.287734046618265182e-01
1.287734046618265182e-01
1.455865494841421526e-01
1.455865494841421526e-01
1.348872755063049156e-01
1.348872755063049156e-01
1.348872755063049156e-01
1.436759648452426430e-01
1.436759648452426430e-01
1.410011463507833407e-01
1.410011463507833407e-01
1.410011463507833407e-01
1.341230416507451229e-01
1.341230416507451229e-01
1.463507833397019453e-01
1.463507833397019453e-01
1.463507833397019453e-01
1.559037065341994654e-01
1.559037065341994654e-01
1.425296140619029539e-01
1.425296140619029539e-01
1.425296140619029539e-01
1.673672143675964952e-01
1.673672143675964952e-01
1.517004203286205499e-01
1.517004203286205499e-01
1.517004203286205499e-01
1.570500573175391545e-01
1.570500573175391545e-01
1.696599159342759011e-01
1.696599159342759011e-01
1.696599159342759011e-01
1.773022544898739117e-01
1.773022544898739117e-01
1.876194115399312246e-01
1.876194115399312246e-01
1.876194115399312246e-01
1.761559037065341948e-01
1.761559037065341948e-01
1.887657623232709136e-01
1.887657623232709136e-01
1.887657623232709136e-01
2.078716087122659539e-01
2.078716087122659539e-01
2.006113870844478397e-01
2.006113870844478397e-01
2.006113870844478397e-01
2.036683225066870384e-01
2.036683225066870384e-01
2.067252579289262648e-01
2.067252579289262648e-01
2.067252579289262648e-01
2.097821933511654635e-01
2.097821933511654635e-01
2.220099350401222860e-01
2.220099350401222860e-01
2.220099350401222860e-01
2.189529996178830595e-01
2.189529996178830595e-01
2.262132212457011737e-01
2.262132212457011737e-01
2.262132212457011737e-01
2.258311043179212774e-01
2.258311043179212774e-01
2.491402369124952332e-01
2.491402369124952332e-01
2.491402369124952332e-01
2.518150554069545355e-01
2.518150554069545355e-01
2.537256400458540173e-01
2.537256400458540173e-01
2.537256400458540173e-01
2.567825754680932437e-01
2.567825754680932437e-01
2.502865876958349500e-01
2.502865876958349500e-01
2.502865876958349500e-01
2.479938861291555163e-01
2.479938861291555163e-01
2.594573939625525183e-01
2.594573939625525183e-01
2.594573939625525183e-01
2.544898739014138100e-01
2.544898739014138100e-01
2.709209017959495758e-01
2.709209017959495758e-01
2.709209017959495758e-01
2.636606801681314338e-01
2.636606801681314338e-01
2.674818494459304530e-01
2.674818494459304530e-01
2.674818494459304530e-01
2.785632403515475586e-01
2.785632403515475586e-01
2.762705387848681804e-01
2.762705387848681804e-01
2.762705387848681804e-01
2.697745510126098312e-01
2.697745510126098312e-01
2.835307604126862668e-01
2.835307604126862668e-01
2.835307604126862668e-01
2.701566679403897830e-01
2.701566679403897830e-01
2.896446312571647197e-01
2.896446312571647197e-01
2.896446312571647197e-01
2.816201757737867850e-01
2.816201757737867850e-01
2.873519296904852860e-01
2.873519296904852860e-01
2.873519296904852860e-01
2.934658005349636833e-01
2.934658005349636833e-01
2.854413450515858042e-01
2.854413450515858042e-01
2.854413450515858042e-01
2.884982804738249751e-01
2.884982804738249751e-01
2.888803974016048715e-01
2.888803974016048715e-01
2.888803974016048715e-01
2.923194497516239942e-01
2.923194497516239942e-01
2.907909820405044088e-01
2.907909820405044088e-01
2.980512036683224952e-01
2.980512036683224952e-01
2.980512036683224952e-01
2.919373328238440979e-01
2.919373328238440979e-01
2.835307604126862668e-01
2.835307604126862668e-01
2.835307604126862668e-01
2.881161635460450787e-01
2.881161635460450787e-01
2.812380588460068886e-01
2.812380588460068886e-01
2.812380588460068886e-01
2.946121513183034279e-01
2.946121513183034279e-01
3.037829575850209962e-01
3.037829575850209962e-01
3.037829575850209962e-01
2.953763851738632207e-01
2.953763851738632207e-01
2.999617883072220326e-01
2.999617883072220326e-01
2.999617883072220326e-01
2.957585021016431170e-01
2.957585021016431170e-01
2.995796713794421362e-01
2.995796713794421362e-01
2.995796713794421362e-01
3.045471914405808445e-01
3.045471914405808445e-01
2.938479174627435797e-01
2.938479174627435797e-01
2.938479174627435797e-01
3.026366068016813071e-01
3.026366068016813071e-01
2.888803974016048715e-01
2.888803974016048715e-01
2.888803974016048715e-01
3.118074130683989309e-01
3.118074130683989309e-01
2.984333205961023916e-01
2.984333205961023916e-01
2.984333205961023916e-01
3.037829575850209962e-01
3.037829575850209962e-01
3.068398930072602226e-01
3.068398930072602226e-01
3.068398930072602226e-01
2.884982804738249751e-01
2.884982804738249751e-01
3.114252961406190345e-01
3.114252961406190345e-01
3.114252961406190345e-01
3.007260221627818253e-01
3.007260221627818253e-01
3.037829575850209962e-01
3.037829575850209962e-01
3.037829575850209962e-01
2.938479174627435797e-01
2.938479174627435797e-01
2.919373328238440979e-01
2.919373328238440979e-01
2.919373328238440979e-01
3.110431792128391382e-01
3.110431792128391382e-01
2.965227359572029098e-01
2.965227359572029098e-01
2.965227359572029098e-01
3.137179977072984127e-01
3.137179977072984127e-01
2.930836836071837870e-01
2.930836836071837870e-01
2.930836836071837870e-01
3.079862437905999117e-01
3.079862437905999117e-01
3.079862437905999117e-01
3.079862437905999117e-01
3.079862437905999117e-01
2.969048528849828061e-01
2.969048528849828061e-01
3.087504776461597045e-01
3.087504776461597045e-01
3.087504776461597045e-01
3.037829575850209962e-01
3.037829575850209962e-01
3.037829575850209962e-01
3.037829575850209962e-01
3.037829575850209962e-01
3.160106992739778464e-01
3.160106992739778464e-01
3.095147115017195527e-01
3.095147115017195527e-01
3.095147115017195527e-01
3.179212839128773282e-01
3.179212839128773282e-01
3.106610622850592418e-01
3.106610622850592418e-01
3.106610622850592418e-01
3.160106992739778464e-01
3.160106992739778464e-01
3.037829575850209962e-01
3.037829575850209962e-01
3.037829575850209962e-01
2.984333205961023916e-01
2.984333205961023916e-01
2.972869698127627025e-01
2.972869698127627025e-01
2.972869698127627025e-01
3.072220099350401190e-01
3.072220099350401190e-01
3.148643484906381573e-01
3.148643484906381573e-01
3.148643484906381573e-01
3.175391669850974319e-01
3.175391669850974319e-01
3.030187237294612035e-01
3.030187237294612035e-01
3.030187237294612035e-01
2.942300343905234761e-01
2.942300343905234761e-01
3.026366068016813071e-01
3.026366068016813071e-01
3.026366068016813071e-01
3.011081390905617217e-01
3.011081390905617217e-01
3.167749331295376392e-01
3.167749331295376392e-01
3.167749331295376392e-01
3.018723729461215144e-01
3.018723729461215144e-01
3.125716469239587236e-01
3.125716469239587236e-01
3.125716469239587236e-01
3.064577760794803263e-01
3.064577760794803263e-01
3.121895299961788273e-01
3.121895299961788273e-01
3.121895299961788273e-01
2.957585021016431170e-01
2.957585021016431170e-01
2.999617883072220326e-01
2.999617883072220326e-01
2.999617883072220326e-01
2.923194497516239942e-01
2.923194497516239942e-01
2.991975544516621843e-01
2.991975544516621843e-01
2.991975544516621843e-01
2.949942682460833243e-01
2.949942682460833243e-01
2.991975544516621843e-01
2.991975544516621843e-01
2.991975544516621843e-01
2.969048528849828061e-01
2.969048528849828061e-01
2.938479174627435797e-01
2.938479174627435797e-01
2.938479174627435797e-01
2.873519296904852860e-01
2.873519296904852860e-01
2.854413450515858042e-01
2.854413450515858042e-01
2.854413450515858042e-01
2.881161635460450787e-01
2.881161635460450787e-01
2.770347726404279731e-01
2.770347726404279731e-01
2.770347726404279731e-01
2.755063049293083877e-01
2.755063049293083877e-01
2.804738249904470959e-01
2.804738249904470959e-01
2.804738249904470959e-01
2.766526557126480768e-01
2.766526557126480768e-01
2.762705387848681804e-01
2.762705387848681804e-01
2.762705387848681804e-01
2.678639663737103493e-01
2.678639663737103493e-01
2.766526557126480768e-01
2.766526557126480768e-01
2.766526557126480768e-01
2.770347726404279731e-01
2.770347726404279731e-01
2.686282002292701421e-01
2.686282002292701421e-01
2.686282002292701421e-01
2.781811234237676622e-01
2.781811234237676622e-01
2.632785632403515375e-01
2.632785632403515375e-01
2.632785632403515375e-01
2.758884218570882840e-01
2.758884218570882840e-01
2.579289262514329328e-01
2.579289262514329328e-01
2.579289262514329328e-01
2.663354986625907639e-01
2.663354986625907639e-01
2.670997325181505566e-01
2.670997325181505566e-01
2.693924340848299348e-01
2.693924340848299348e-01
2.693924340848299348e-01
2.499044707680550259e-01
2.499044707680550259e-01
2.628964463125716411e-01
2.628964463125716411e-01
2.628964463125716411e-01
2.472296522735957236e-01
2.472296522735957236e-01
2.613679786014520556e-01
2.613679786014520556e-01
2.613679786014520556e-01
2.533435231180741209e-01
2.533435231180741209e-01
2.437905999235766008e-01
2.437905999235766008e-01
2.437905999235766008e-01
2.586931601069927256e-01
2.586931601069927256e-01
2.350019105846389011e-01
2.350019105846389011e-01
2.350019105846389011e-01
2.315628582346198061e-01
2.315628582346198061e-01
2.476117692013756200e-01
2.476117692013756200e-01
2.476117692013756200e-01
2.495223538402751295e-01
2.495223538402751295e-01
2.464654184180359309e-01
2.464654184180359309e-01
2.464654184180359309e-01
2.422621322124570153e-01
2.422621322124570153e-01
2.369124952235384107e-01
2.369124952235384107e-01
2.369124952235384107e-01
2.285059228123805797e-01
2.285059228123805797e-01
2.330913259457393916e-01
2.330913259457393916e-01
2.330913259457393916e-01
2.407336645013374021e-01
2.407336645013374021e-01
2.407336645013374021e-01
2.407336645013374021e-01
2.407336645013374021e-01
2.304165074512800893e-01
2.304165074512800893e-01
2.254489873901413810e-01
2.254489873901413810e-01
2.254489873901413810e-01
2.361482613679785902e-01
2.361482613679785902e-01
2.342376767290791084e-01
2.342376767290791084e-01
2.342376767290791084e-01
2.388230798624378926e-01
2.388230798624378926e-01
2.403515475735575058e-01
2.403515475735575058e-01
2.403515475735575058e-01
2.231562858234619751e-01
2.231562858234619751e-01
2.315628582346198061e-01
2.315628582346198061e-01
2.315628582346198061e-01
2.384409629346579962e-01
2.384409629346579962e-01
2.292701566679404002e-01
2.292701566679404002e-01
2.292701566679404002e-01
2.273595720290408906e-01
2.273595720290408906e-01
2.197172334734428800e-01
2.197172334734428800e-01
2.197172334734428800e-01
2.285059228123805797e-01
2.285059228123805797e-01
2.223920519679021823e-01
2.223920519679021823e-01
2.223920519679021823e-01
2.162781811234237572e-01
2.162781811234237572e-01
2.334734428735192879e-01
2.334734428735192879e-01
2.334734428735192879e-01
2.227741688956820787e-01
2.227741688956820787e-01
2.158960641956438609e-01
2.158960641956438609e-01
2.158960641956438609e-01
2.296522735957202965e-01
2.296522735957202965e-01
2.250668704623614846e-01
2.250668704623614846e-01
2.250668704623614846e-01
2.311807413068398820e-01
2.311807413068398820e-01
2.296522735957202965e-01
2.296522735957202965e-01
2.296522735957202965e-01
2.281238058846006833e-01
2.281238058846006833e-01
2.262132212457011737e-01
2.262132212457011737e-01
2.262132212457011737e-01
2.216278181123423896e-01
2.216278181123423896e-01
2.200993504012227764e-01
2.200993504012227764e-01
2.200993504012227764e-01
2.101643102789453599e-01
2.101643102789453599e-01
2.231562858234619751e-01
2.231562858234619751e-01
2.231562858234619751e-01
2.235384027512418714e-01
2.235384027512418714e-01
2.269774551012609942e-01
2.269774551012609942e-01
2.269774551012609942e-01
2.151318303400840681e-01
2.151318303400840681e-01
2.246847535345815883e-01
2.246847535345815883e-01
2.246847535345815883e-01
2.109285441345051526e-01
2.109285441345051526e-01
2.170424149789835777e-01
2.170424149789835777e-01
2.170424149789835777e-01
2.178066488345433704e-01
2.178066488345433704e-01
2.097821933511654635e-01
2.097821933511654635e-01
2.097821933511654635e-01
2.223920519679021823e-01
2.223920519679021823e-01
2.082537256400458503e-01
2.082537256400458503e-01
2.082537256400458503e-01
2.040504394344669348e-01
2.040504394344669348e-01
2.151318303400840681e-01
2.151318303400840681e-01
2.151318303400840681e-01
2.181887657623232668e-01
2.181887657623232668e-01
1.971723347344287447e-01
1.971723347344287447e-01
1.971723347344287447e-01
2.006113870844478397e-01
2.006113870844478397e-01
1.964081008788689242e-01
1.964081008788689242e-01
1.964081008788689242e-01
2.136033626289644549e-01
2.136033626289644549e-01
1.952617500955292351e-01
1.952617500955292351e-01
1.952617500955292351e-01
2.162781811234237572e-01
2.162781811234237572e-01
2.109285441345051526e-01
2.109285441345051526e-01
2.109285441345051526e-01
1.944975162399694424e-01
1.944975162399694424e-01
2.006113870844478397e-01
2.006113870844478397e-01
2.006113870844478397e-01
2.082537256400458503e-01
2.082537256400458503e-01
2.009935040122277361e-01
2.009935040122277361e-01
2.009935040122277361e-01
2.021398547955674529e-01
2.021398547955674529e-01
2.051967902178066516e-01
2.051967902178066516e-01
2.051967902178066516e-01
2.063431410011463407e-01
2.063431410011463407e-01
1.971723347344287447e-01
1.971723347344287447e-01
1.971723347344287447e-01
2.021398547955674529e-01
2.021398547955674529e-01
1.990829193733282265e-01
1.990829193733282265e-01
1.990829193733282265e-01
1.880015284677111209e-01
1.880015284677111209e-01
2.032862055789071420e-01
2.032862055789071420e-01
2.032862055789071420e-01
1.895299961788307341e-01
1.895299961788307341e-01
1.910584638899503196e-01
1.910584638899503196e-01
1.910584638899503196e-01
1.952617500955292351e-01
1.952617500955292351e-01
1.929690485288498292e-01
1.929690485288498292e-01
1.948796331677493388e-01
1.948796331677493388e-01
1.948796331677493388e-01
1.860909438288116113e-01
1.860909438288116113e-01
1.784486052732136008e-01
1.784486052732136008e-01
1.784486052732136008e-01
1.765380206343140912e-01
1.765380206343140912e-01
1.937332823844096219e-01
1.937332823844096219e-01
1.937332823844096219e-01
1.822697745510126199e-01
1.822697745510126199e-01
1.818876576232326958e-01
1.818876576232326958e-01
1.818876576232326958e-01
1.868551776843714041e-01
1.868551776843714041e-01
1.841803591899121018e-01
1.841803591899121018e-01
1.841803591899121018e-01
1.784486052732136008e-01
1.784486052732136008e-01
1.891478792510508100e-01
1.891478792510508100e-01
1.891478792510508100e-01
1.860909438288116113e-01
1.860909438288116113e-01
1.765380206343140912e-01
1.765380206343140912e-01
1.765380206343140912e-01
1.837982422621322054e-01
1.837982422621322054e-01
1.730989682842949962e-01
1.730989682842949962e-01
1.730989682842949962e-01
1.880015284677111209e-01
1.880015284677111209e-01
1.769201375620939876e-01
1.769201375620939876e-01
1.769201375620939876e-01
1.685135651509361843e-01
1.685135651509361843e-01
1.669850974398165711e-01
1.669850974398165711e-01
1.669850974398165711e-01
1.822697745510126199e-01
1.822697745510126199e-01
1.795949560565533176e-01
1.795949560565533176e-01
1.795949560565533176e-01
1.746274359954146094e-01
1.746274359954146094e-01
1.834161253343523090e-01
1.834161253343523090e-01
1.834161253343523090e-01
1.669850974398165711e-01
1.669850974398165711e-01
1.623996943064577869e-01
1.623996943064577869e-01
1.623996943064577869e-01
1.761559037065341948e-01
1.761559037065341948e-01
1.719526175009552793e-01
1.719526175009552793e-01
1.719526175009552793e-01
1.727168513565150998e-01
1.727168513565150998e-01
1.704241497898356938e-01
1.704241497898356938e-01
1.704241497898356938e-01
1.692777990064959770e-01
1.692777990064959770e-01
1.765380206343140912e-01
1.765380206343140912e-01
1.765380206343140912e-01
1.753916698509744021e-01
1.753916698509744021e-01
1.643102789453572687e-01
1.643102789453572687e-01
1.643102789453572687e-01
1.585785250286587678e-01
1.585785250286587678e-01
1.616354604508979664e-01
1.616354604508979664e-01
1.616354604508979664e-01
1.578142911730989750e-01
1.578142911730989750e-01
1.574321742453190787e-01
1.574321742453190787e-01
1.574321742453190787e-01
1.578142911730989750e-01
1.578142911730989750e-01
1.666029805120366747e-01
1.666029805120366747e-01
1.666029805120366747e-01
1.669850974398165711e-01
1.669850974398165711e-01
1.719526175009552793e-01
1.719526175009552793e-01
1.719526175009552793e-01
1.746274359954146094e-01
1.746274359954146094e-01
1.719526175009552793e-01
1.719526175009552793e-01
1.719526175009552793e-01
1.547573557508597764e-01
1.547573557508597764e-01
1.578142911730989750e-01
1.578142911730989750e-01
1.578142911730989750e-01
1.585785250286587678e-01
1.585785250286587678e-01
1.589606419564386641e-01
1.589606419564386641e-01
1.589606419564386641e-01
1.543752388230798522e-01
1.543752388230798522e-01
1.547573557508597764e-01
1.547573557508597764e-01
1.547573557508597764e-01
1.631639281620175796e-01
1.631639281620175796e-01
1.597248758119984846e-01
1.597248758119984846e-01
1.597248758119984846e-01
1.639281620175773724e-01
1.639281620175773724e-01
1.696599159342759011e-01
1.696599159342759011e-01
1.696599159342759011e-01
1.478792510508215585e-01
1.478792510508215585e-01
1.536110049675200595e-01
1.536110049675200595e-01
1.536110049675200595e-01
1.669850974398165711e-01
1.669850974398165711e-01
1.643102789453572687e-01
1.643102789453572687e-01
1.643102789453572687e-01
1.719526175009552793e-01
1.719526175009552793e-01
1.585785250286587678e-01
1.585785250286587678e-01
1.585785250286587678e-01
1.643102789453572687e-01
1.643102789453572687e-01
1.608712265953381737e-01
1.608712265953381737e-01
1.608712265953381737e-01
1.505540695452808608e-01
1.505540695452808608e-01
1.471150171952617380e-01
1.471150171952617380e-01
1.471150171952617380e-01
1.589606419564386641e-01
1.589606419564386641e-01
1.517004203286205499e-01
1.517004203286205499e-01
1.517004203286205499e-01
1.601069927397783810e-01
1.601069927397783810e-01
1.631639281620175796e-01
1.631639281620175796e-01
1.631639281620175796e-01
1.432938479174627466e-01
1.432938479174627466e-01
1.612533435231180701e-01
1.612533435231180701e-01
1.612533435231180701e-01
1.646923958731371929e-01
1.646923958731371929e-01
1.474971341230416622e-01
1.474971341230416622e-01
1.474971341230416622e-01
1.536110049675200595e-01
1.536110049675200595e-01
1.570500573175391545e-01
1.570500573175391545e-01
1.570500573175391545e-01
1.486434849063813513e-01
1.486434849063813513e-01
1.666029805120366747e-01
1.666029805120366747e-01
1.666029805120366747e-01
1.490256018341612476e-01
1.490256018341612476e-01
1.436759648452426430e-01
1.436759648452426430e-01
1.436759648452426430e-01
1.562858234619793618e-01
1.562858234619793618e-01
1.543752388230798522e-01
1.543752388230798522e-01
1.543752388230798522e-01
1.574321742453190787e-01
1.574321742453190787e-01
1.685135651509361843e-01
1.685135651509361843e-01
1.444401987008024357e-01
1.444401987008024357e-01
1.444401987008024357e-01
1.532288880397401631e-01
1.532288880397401631e-01
1.425296140619029539e-01
1.425296140619029539e-01
1.425296140619029539e-01
1.444401987008024357e-01
1.444401987008024357e-01
1.459686664119220489e-01
1.459686664119220489e-01
1.459686664119220489e-01
1.425296140619029539e-01
1.425296140619029539e-01
1.578142911730989750e-01
1.578142911730989750e-01
1.578142911730989750e-01
1.589606419564386641e-01
1.589606419564386641e-01
1.620175773786778628e-01
1.620175773786778628e-01
1.620175773786778628e-01
1.555215896064195691e-01
1.555215896064195691e-01
1.398547955674436516e-01
1.398547955674436516e-01
1.398547955674436516e-01
1.612533435231180701e-01
1.612533435231180701e-01
1.471150171952617380e-01
1.471150171952617380e-01
1.471150171952617380e-01
1.536110049675200595e-01
1.536110049675200595e-01
1.578142911730989750e-01
1.578142911730989750e-01
1.578142911730989750e-01
1.467329002674818417e-01
1.467329002674818417e-01
1.390905617118838311e-01
1.390905617118838311e-01
1.390905617118838311e-01
1.471150171952617380e-01
1.471150171952617380e-01
1.501719526175009645e-01
1.501719526175009645e-01
1.501719526175009645e-01
1.421474971341230298e-01
1.421474971341230298e-01
1.562858234619793618e-01
1.562858234619793618e-01
1.562858234619793618e-01
1.394726786396637275e-01
1.394726786396637275e-01
1.627818112342376833e-01
1.627818112342376833e-01
1.627818112342376833e-01
1.505540695452808608e-01
1.505540695452808608e-01
1.547573557508597764e-01
1.547573557508597764e-01
1.547573557508597764e-01
1.375620940007642456e-01
1.375620940007642456e-01
1.562858234619793618e-01
1.562858234619793618e-01
1.562858234619793618e-01
1.490256018341612476e-01
1.490256018341612476e-01
1.425296140619029539e-01
1.425296140619029539e-01
1.425296140619029539e-01
1.505540695452808608e-01
1.505540695452808608e-01
1.371799770729843215e-01
1.371799770729843215e-01
1.371799770729843215e-01
1.410011463507833407e-01
1.410011463507833407e-01
1.367978601452044252e-01
1.367978601452044252e-01
1.367978601452044252e-01
1.425296140619029539e-01
1.425296140619029539e-01
1.367978601452044252e-01
1.367978601452044252e-01
1.367978601452044252e-01
1.394726786396637275e-01
1.394726786396637275e-01
1.371799770729843215e-01
1.371799770729843215e-01
1.371799770729843215e-01
1.494077187619411440e-01
1.494077187619411440e-01
1.429117309896828503e-01
1.429117309896828503e-01
1.429117309896828503e-01
1.559037065341994654e-01
1.559037065341994654e-01
1.432938479174627466e-01
1.432938479174627466e-01
1.432938479174627466e-01
1.375620940007642456e-01
1.375620940007642456e-01
1.371799770729843215e-01
1.371799770729843215e-01
1.371799770729843215e-01
1.345051585785250192e-01
1.345051585785250192e-01
1.440580817730225394e-01
1.440580817730225394e-01
1.440580817730225394e-01
1.379442109285441420e-01
1.379442109285441420e-01
1.494077187619411440e-01
1.494077187619411440e-01
1.494077187619411440e-01
1.467329002674818417e-01
1.467329002674818417e-01
1.325945739396255374e-01
1.325945739396255374e-01
1.325945739396255374e-01
1.463507833397019453e-01
1.463507833397019453e-01
1.322124570118456133e-01
1.322124570118456133e-01
1.322124570118456133e-01
1.463507833397019453e-01
1.463507833397019453e-01
1.295376385173863110e-01
1.295376385173863110e-01
1.295376385173863110e-01
1.436759648452426430e-01
1.436759648452426430e-01
1.524646541841803704e-01
1.524646541841803704e-01
1.524646541841803704e-01
1.398547955674436516e-01
1.398547955674436516e-01
1.482613679786014549e-01
1.482613679786014549e-01
1.482613679786014549e-01
1.520825372564004463e-01
1.520825372564004463e-01
1.429117309896828503e-01
1.429117309896828503e-01
1.429117309896828503e-01
1.532288880397401631e-01
1.532288880397401631e-01
1.490256018341612476e-01
1.490256018341612476e-01
1.490256018341612476e-01
1.536110049675200595e-01
1.536110049675200595e-01
1.432938479174627466e-01
1.432938479174627466e-01
1.432938479174627466e-01
1.574321742453190787e-01
1.574321742453190787e-01
1.452044325563622562e-01
1.452044325563622562e-01
1.452044325563622562e-01
1.467329002674818417e-01
1.467329002674818417e-01
1.517004203286205499e-01
1.517004203286205499e-01
1.517004203286205499e-01
1.539931218952999559e-01
1.539931218952999559e-01
1.482613679786014549e-01
1.482613679786014549e-01
1.482613679786014549e-01
1.482613679786014549e-01
1.482613679786014549e-01
1.562858234619793618e-01
1.562858234619793618e-01
1.562858234619793618e-01
1.734810852120748925e-01
1.734810852120748925e-01
1.623996943064577869e-01
1.623996943064577869e-01
1.623996943064577869e-01
1.753916698509744021e-01
1.753916698509744021e-01
1.742453190676346853e-01
1.742453190676346853e-01
1.742453190676346853e-01
1.887657623232709136e-01
1.887657623232709136e-01
1.941153993121895183e-01
1.941153993121895183e-01
1.941153993121895183e-01
1.990829193733282265e-01
1.990829193733282265e-01
1.971723347344287447e-01
1.971723347344287447e-01
1.971723347344287447e-01
2.090179594956056430e-01
2.090179594956056430e-01
2.174245319067634741e-01
2.174245319067634741e-01
2.174245319067634741e-01
2.185708826901031632e-01
2.185708826901031632e-01
2.078716087122659539e-01
2.078716087122659539e-01
2.300343905235001929e-01
2.300343905235001929e-01
2.300343905235001929e-01
2.254489873901413810e-01
2.254489873901413810e-01
2.411157814291172985e-01
2.411157814291172985e-01
2.411157814291172985e-01
2.258311043179212774e-01
2.258311043179212774e-01
2.357661444401986939e-01
2.357661444401986939e-01
2.357661444401986939e-01
2.441727168513565249e-01
2.441727168513565249e-01
2.571646923958731401e-01
2.571646923958731401e-01
2.571646923958731401e-01
2.411157814291172985e-01
2.411157814291172985e-01
2.483760030569354127e-01
2.483760030569354127e-01
2.483760030569354127e-01
2.705387848681696794e-01
2.705387848681696794e-01
2.705387848681696794e-01
2.705387848681696794e-01
2.705387848681696794e-01
2.663354986625907639e-01
2.663354986625907639e-01
2.617500955292319520e-01
2.617500955292319520e-01
2.617500955292319520e-01
2.751241880015284913e-01
2.751241880015284913e-01
2.655712648070309712e-01
2.655712648070309712e-01
2.655712648070309712e-01
2.701566679403897830e-01
2.701566679403897830e-01
2.785632403515475586e-01
2.785632403515475586e-01
2.785632403515475586e-01
2.709209017959495758e-01
2.709209017959495758e-01
2.770347726404279731e-01
2.770347726404279731e-01
2.770347726404279731e-01
2.949942682460833243e-01
2.949942682460833243e-01
3.003439052350019289e-01
3.003439052350019289e-01
3.003439052350019289e-01
2.846771111960260114e-01
2.846771111960260114e-01
2.934658005349636833e-01
2.934658005349636833e-01
2.934658005349636833e-01
2.930836836071837870e-01
2.930836836071837870e-01
2.976690867405425989e-01
2.976690867405425989e-01
2.976690867405425989e-01
3.030187237294612035e-01
3.030187237294612035e-01
2.995796713794421362e-01
2.995796713794421362e-01
2.995796713794421362e-01
2.976690867405425989e-01
2.976690867405425989e-01
2.930836836071837870e-01
2.930836836071837870e-01
2.930836836071837870e-01
3.060756591517004299e-01
3.060756591517004299e-01
2.949942682460833243e-01
2.949942682460833243e-01
2.949942682460833243e-01
2.988154375238822880e-01
2.988154375238822880e-01
2.927015666794038906e-01
2.927015666794038906e-01
2.927015666794038906e-01
2.953763851738632207e-01
2.953763851738632207e-01
2.911730989682843052e-01
2.911730989682843052e-01
2.911730989682843052e-01
3.137179977072984127e-01
3.137179977072984127e-01
2.969048528849828061e-01
2.969048528849828061e-01
2.969048528849828061e-01
3.083683607183798081e-01
3.083683607183798081e-01
2.934658005349636833e-01
2.934658005349636833e-01
2.934658005349636833e-01
2.988154375238822880e-01
2.988154375238822880e-01
2.972869698127627025e-01
2.972869698127627025e-01
2.972869698127627025e-01
3.056935422239205336e-01
3.056935422239205336e-01
3.037829575850209962e-01
3.037829575850209962e-01
3.037829575850209962e-01
3.114252961406190345e-01
3.114252961406190345e-01
3.129537638517386200e-01
3.129537638517386200e-01
3.129537638517386200e-01
2.980512036683224952e-01
2.980512036683224952e-01
2.957585021016431170e-01
2.957585021016431170e-01
2.957585021016431170e-01
2.995796713794421362e-01
2.995796713794421362e-01
3.110431792128391382e-01
3.110431792128391382e-01
3.110431792128391382e-01
2.999617883072220326e-01
2.999617883072220326e-01
3.125716469239587236e-01
3.125716469239587236e-01
3.125716469239587236e-01
3.091325945739396008e-01
3.091325945739396008e-01
3.163928162017577428e-01
3.163928162017577428e-01
3.163928162017577428e-01
2.980512036683224952e-01
2.980512036683224952e-01
3.087504776461597045e-01
3.087504776461597045e-01
3.087504776461597045e-01
2.934658005349636833e-01
2.934658005349636833e-01
2.946121513183034279e-01
2.946121513183034279e-01
2.946121513183034279e-01
3.194497516239969692e-01
3.194497516239969692e-01
3.003439052350019289e-01
3.003439052350019289e-01
3.003439052350019289e-01
3.003439052350019289e-01
3.003439052350019289e-01
2.988154375238822880e-01
2.988154375238822880e-01
2.988154375238822880e-01
2.991975544516621843e-01
2.991975544516621843e-01
3.244172716851356775e-01
3.244172716851356775e-01
3.244172716851356775e-01
3.114252961406190345e-01
3.114252961406190345e-01
3.106610622850592418e-01
3.106610622850592418e-01
3.106610622850592418e-01
3.228888039740160365e-01
3.228888039740160365e-01
3.091325945739396008e-01
3.091325945739396008e-01
3.091325945739396008e-01
3.183034008406572246e-01
3.183034008406572246e-01
3.137179977072984127e-01
3.137179977072984127e-01
3.137179977072984127e-01
3.125716469239587236e-01
3.125716469239587236e-01
3.110431792128391382e-01
3.110431792128391382e-01
3.110431792128391382e-01
3.160106992739778464e-01
3.160106992739778464e-01
3.037829575850209962e-01
3.037829575850209962e-01
3.037829575850209962e-01
3.156285823461979501e-01
3.156285823461979501e-01
3.041650745128008926e-01
3.041650745128008926e-01
3.041650745128008926e-01
3.225066870462361401e-01
3.225066870462361401e-01
3.121895299961788273e-01
3.121895299961788273e-01
3.121895299961788273e-01
3.064577760794803263e-01
3.064577760794803263e-01
3.022544898739014108e-01
3.022544898739014108e-01
3.022544898739014108e-01
3.194497516239969692e-01
3.194497516239969692e-01
3.121895299961788273e-01
3.121895299961788273e-01
3.148643484906381573e-01
3.148643484906381573e-01
3.148643484906381573e-01
3.030187237294612035e-01
3.030187237294612035e-01
3.129537638517386200e-01
3.129537638517386200e-01
3.129537638517386200e-01
3.003439052350019289e-01
3.003439052350019289e-01
3.179212839128773282e-01
3.179212839128773282e-01
3.179212839128773282e-01
3.079862437905999117e-01
3.079862437905999117e-01
3.102789453572793454e-01
3.102789453572793454e-01
3.102789453572793454e-01
3.175391669850974319e-01
3.175391669850974319e-01
3.053114252961406372e-01
3.053114252961406372e-01
3.053114252961406372e-01
2.892625143293847678e-01
2.892625143293847678e-01
3.152464654184180537e-01
3.152464654184180537e-01
3.152464654184180537e-01
3.072220099350401190e-01
3.072220099350401190e-01
2.999617883072220326e-01
2.999617883072220326e-01
2.999617883072220326e-01
2.938479174627435797e-01
2.938479174627435797e-01
3.091325945739396008e-01
3.091325945739396008e-01
3.091325945739396008e-01
2.865876958349254933e-01
2.865876958349254933e-01
2.846771111960260114e-01
2.846771111960260114e-01
2.846771111960260114e-01
3.011081390905617217e-01
3.011081390905617217e-01
2.854413450515858042e-01
2.854413450515858042e-01
2.854413450515858042e-01
2.927015666794038906e-01
2.927015666794038906e-01
2.800917080626671996e-01
2.800917080626671996e-01
2.800917080626671996e-01
2.762705387848681804e-01
2.762705387848681804e-01
2.820022927015666814e-01
2.820022927015666814e-01
2.820022927015666814e-01
2.842949942682460596e-01
2.842949942682460596e-01
2.713030187237294721e-01
2.713030187237294721e-01
2.713030187237294721e-01
2.648070309514711229e-01
2.648070309514711229e-01
2.839128773404661632e-01
2.839128773404661632e-01
2.839128773404661632e-01
2.777990064959877659e-01
2.777990064959877659e-01
2.625143293847917447e-01
2.625143293847917447e-01
2.625143293847917447e-01
2.705387848681696794e-01
2.705387848681696794e-01
2.678639663737103493e-01
2.678639663737103493e-01
2.678639663737103493e-01
2.564004585403133474e-01
2.564004585403133474e-01
2.651891478792510748e-01
2.651891478792510748e-01
2.651891478792510748e-01
2.541077569736339137e-01
2.541077569736339137e-01
2.525792892625143282e-01
2.525792892625143282e-01
2.525792892625143282e-01
2.655712648070309712e-01
2.655712648070309712e-01
2.541077569736339137e-01
2.541077569736339137e-01
2.541077569736339137e-01
2.506687046236148464e-01
2.506687046236148464e-01
2.552541077569736583e-01
2.552541077569736583e-01
2.552541077569736583e-01
2.464654184180359309e-01
2.464654184180359309e-01
2.613679786014520556e-01
2.613679786014520556e-01
2.613679786014520556e-01
2.403515475735575058e-01
2.403515475735575058e-01
2.621322124570118484e-01
2.621322124570118484e-01
2.621322124570118484e-01
2.460833014902560067e-01
2.460833014902560067e-01
2.502865876958349500e-01
2.502865876958349500e-01
2.502865876958349500e-01
2.564004585403133474e-01
2.564004585403133474e-01
2.365303782957585144e-01
2.365303782957585144e-01
2.365303782957585144e-01
2.525792892625143282e-01
2.525792892625143282e-01
2.392051967902178167e-01
2.392051967902178167e-01
2.392051967902178167e-01
2.445548337791364213e-01
2.445548337791364213e-01
2.388230798624378926e-01
2.388230798624378926e-01
2.388230798624378926e-01
2.365303782957585144e-01
2.365303782957585144e-01
2.369124952235384107e-01
2.369124952235384107e-01
2.369124952235384107e-01
2.472296522735957236e-01
2.472296522735957236e-01
2.460833014902560067e-01
2.460833014902560067e-01
2.460833014902560067e-01
2.334734428735192879e-01
2.334734428735192879e-01
2.315628582346198061e-01
2.315628582346198061e-01
2.315628582346198061e-01
2.499044707680550259e-01
2.499044707680550259e-01
2.441727168513565249e-01
2.441727168513565249e-01
2.441727168513565249e-01
2.487581199847153091e-01
2.487581199847153091e-01
2.499044707680550259e-01
2.499044707680550259e-01
2.499044707680550259e-01
2.311807413068398820e-01
2.311807413068398820e-01
2.307986243790599856e-01
2.307986243790599856e-01
2.307986243790599856e-01
2.392051967902178167e-01
2.392051967902178167e-01
2.265953381734810979e-01
2.265953381734810979e-01
2.265953381734810979e-01
2.399694306457776094e-01
2.399694306457776094e-01
2.235384027512418714e-01
2.235384027512418714e-01
2.235384027512418714e-01
2.453190676346962140e-01
2.453190676346962140e-01
2.334734428735192879e-01
2.334734428735192879e-01
2.334734428735192879e-01
2.388230798624378926e-01
2.388230798624378926e-01
2.376767290790982035e-01
2.376767290790982035e-01
2.376767290790982035e-01
2.288880397401604760e-01
2.288880397401604760e-01
2.235384027512418714e-01
2.235384027512418714e-01
2.235384027512418714e-01
2.227741688956820787e-01
2.227741688956820787e-01
2.285059228123805797e-01
2.285059228123805797e-01
2.285059228123805797e-01
2.353840275124187975e-01
2.353840275124187975e-01
2.262132212457011737e-01
2.262132212457011737e-01
2.262132212457011737e-01
2.258311043179212774e-01
2.258311043179212774e-01
2.200993504012227764e-01
2.200993504012227764e-01
2.200993504012227764e-01
2.185708826901031632e-01
2.185708826901031632e-01
2.285059228123805797e-01
2.285059228123805797e-01
2.200993504012227764e-01
2.200993504012227764e-01
2.200993504012227764e-01
2.178066488345433704e-01
2.178066488345433704e-01
2.193351165456629837e-01
2.193351165456629837e-01
2.193351165456629837e-01
2.151318303400840681e-01
2.151318303400840681e-01
2.265953381734810979e-01
2.265953381734810979e-01
2.265953381734810979e-01
2.170424149789835777e-01
2.170424149789835777e-01
2.147497134123041718e-01
2.147497134123041718e-01
2.147497134123041718e-01
2.231562858234619751e-01
2.231562858234619751e-01
2.262132212457011737e-01
2.262132212457011737e-01
2.262132212457011737e-01
2.281238058846006833e-01
2.281238058846006833e-01
2.227741688956820787e-01
2.227741688956820787e-01
2.227741688956820787e-01
2.212457011845624655e-01
2.212457011845624655e-01
2.086358425678257467e-01
2.086358425678257467e-01
2.086358425678257467e-01
2.185708826901031632e-01
2.185708826901031632e-01
2.086358425678257467e-01
2.086358425678257467e-01
2.086358425678257467e-01
2.147497134123041718e-01
2.147497134123041718e-01
2.097821933511654635e-01
2.097821933511654635e-01
2.097821933511654635e-01
2.025219717233473493e-01
2.025219717233473493e-01
2.025219717233473493e-01
2.025219717233473493e-01
2.025219717233473493e-01
1.990829193733282265e-01
1.990829193733282265e-01
1.994650363011081506e-01
1.994650363011081506e-01
1.994650363011081506e-01
2.002292701566679434e-01
2.002292701566679434e-01
1.948796331677493388e-01
1.948796331677493388e-01
1.948796331677493388e-01
2.078716087122659539e-01
2.078716087122659539e-01
2.002292701566679434e-01
2.002292701566679434e-01
2.002292701566679434e-01
1.979365685899885374e-01
1.979365685899885374e-01
2.063431410011463407e-01
2.063431410011463407e-01
2.063431410011463407e-01
1.967902178066488483e-01
1.967902178066488483e-01
1.929690485288498292e-01
1.929690485288498292e-01
1.929690485288498292e-01
2.009935040122277361e-01
2.009935040122277361e-01
1.994650363011081506e-01
1.994650363011081506e-01
1.994650363011081506e-01
1.941153993121895183e-01
1.941153993121895183e-01
1.876194115399312246e-01
1.876194115399312246e-01
1.876194115399312246e-01
1.914405808177302160e-01
1.914405808177302160e-01
2.021398547955674529e-01
2.021398547955674529e-01
2.021398547955674529e-01
2.032862055789071420e-01
2.032862055789071420e-01
2.071073748567061612e-01
2.071073748567061612e-01
2.071073748567061612e-01
1.857088269010317150e-01
1.857088269010317150e-01
2.013756209400076325e-01
2.013756209400076325e-01
2.013756209400076325e-01
1.876194115399312246e-01
1.876194115399312246e-01
1.765380206343140912e-01
1.765380206343140912e-01
1.765380206343140912e-01
1.757737867787542985e-01
1.757737867787542985e-01
1.849445930454719222e-01
1.849445930454719222e-01
1.849445930454719222e-01
1.818876576232326958e-01
1.818876576232326958e-01
1.960259839510890278e-01
1.960259839510890278e-01
1.960259839510890278e-01
1.860909438288116113e-01
1.860909438288116113e-01
1.757737867787542985e-01
1.757737867787542985e-01
1.757737867787542985e-01
1.795949560565533176e-01
1.795949560565533176e-01
1.899121131066106305e-01
1.899121131066106305e-01
1.899121131066106305e-01
1.795949560565533176e-01
1.795949560565533176e-01
1.906763469621704232e-01
1.906763469621704232e-01
1.906763469621704232e-01
1.880015284677111209e-01
1.880015284677111209e-01
1.849445930454719222e-01
1.849445930454719222e-01
1.849445930454719222e-01
1.723347344287352034e-01
1.723347344287352034e-01
1.727168513565150998e-01
1.727168513565150998e-01
1.727168513565150998e-01
1.719526175009552793e-01
1.719526175009552793e-01
1.715705005731753829e-01
1.715705005731753829e-01
1.715705005731753829e-01
1.692777990064959770e-01
1.692777990064959770e-01
1.887657623232709136e-01
1.887657623232709136e-01
1.887657623232709136e-01
1.746274359954146094e-01
1.746274359954146094e-01
1.692777990064959770e-01
1.692777990064959770e-01
1.692777990064959770e-01
1.876194115399312246e-01
1.876194115399312246e-01
1.646923958731371929e-01
1.646923958731371929e-01
1.646923958731371929e-01
1.803591899121131104e-01
1.803591899121131104e-01
1.834161253343523090e-01
1.834161253343523090e-01
1.834161253343523090e-01
1.818876576232326958e-01
1.818876576232326958e-01
1.681314482231562879e-01
1.681314482231562879e-01
1.681314482231562879e-01
1.662208635842567783e-01
1.662208635842567783e-01
1.761559037065341948e-01
1.761559037065341948e-01
1.761559037065341948e-01
1.757737867787542985e-01
1.757737867787542985e-01
1.643102789453572687e-01
1.643102789453572687e-01
1.643102789453572687e-01
1.662208635842567783e-01
1.662208635842567783e-01
1.666029805120366747e-01
1.666029805120366747e-01
1.666029805120366747e-01
1.792128391287733935e-01
1.792128391287733935e-01
1.666029805120366747e-01
1.666029805120366747e-01
1.666029805120366747e-01
1.784486052732136008e-01
1.784486052732136008e-01
1.723347344287352034e-01
1.723347344287352034e-01
1.723347344287352034e-01
1.761559037065341948e-01
1.761559037065341948e-01
1.639281620175773724e-01
1.639281620175773724e-01
1.639281620175773724e-01
1.730989682842949962e-01
1.730989682842949962e-01
1.765380206343140912e-01
1.765380206343140912e-01
1.765380206343140912e-01
1.730989682842949962e-01
1.730989682842949962e-01
1.597248758119984846e-01
1.597248758119984846e-01
1.669850974398165711e-01
1.669850974398165711e-01
1.669850974398165711e-01
1.623996943064577869e-01
1.623996943064577869e-01
1.711883836453954866e-01
1.711883836453954866e-01
1.711883836453954866e-01
1.666029805120366747e-01
1.666029805120366747e-01
1.677493312953763915e-01
1.677493312953763915e-01
1.677493312953763915e-01
1.570500573175391545e-01
1.570500573175391545e-01
1.696599159342759011e-01
1.696599159342759011e-01
1.696599159342759011e-01
1.562858234619793618e-01
1.562858234619793618e-01
1.650745128009170892e-01
1.650745128009170892e-01
1.650745128009170892e-01
1.685135651509361843e-01
1.685135651509361843e-01
1.612533435231180701e-01
1.612533435231180701e-01
1.612533435231180701e-01
1.715705005731753829e-01
1.715705005731753829e-01
1.719526175009552793e-01
1.719526175009552793e-01
1.719526175009552793e-01
1.608712265953381737e-01
1.608712265953381737e-01
1.734810852120748925e-01
1.734810852120748925e-01
1.734810852120748925e-01
1.539931218952999559e-01
1.539931218952999559e-01
1.685135651509361843e-01
1.685135651509361843e-01
1.685135651509361843e-01
1.513183034008406536e-01
1.513183034008406536e-01
1.578142911730989750e-01
1.578142911730989750e-01
1.578142911730989750e-01
1.604891096675582773e-01
1.604891096675582773e-01
1.650745128009170892e-01
1.650745128009170892e-01
1.650745128009170892e-01
1.570500573175391545e-01
1.570500573175391545e-01
1.578142911730989750e-01
1.578142911730989750e-01
1.578142911730989750e-01
1.528467711119602668e-01
1.528467711119602668e-01
1.646923958731371929e-01
1.646923958731371929e-01
1.646923958731371929e-01
1.635460450897974760e-01
1.635460450897974760e-01
1.734810852120748925e-01
1.734810852120748925e-01
1.734810852120748925e-01
1.688956820787160806e-01
1.688956820787160806e-01
1.715705005731753829e-01
1.715705005731753829e-01
1.715705005731753829e-01
1.482613679786014549e-01
1.482613679786014549e-01
1.555215896064195691e-01
1.555215896064195691e-01
1.555215896064195691e-01
1.555215896064195691e-01
1.555215896064195691e-01
1.627818112342376833e-01
1.627818112342376833e-01
1.627818112342376833e-01
1.646923958731371929e-01
1.646923958731371929e-01
1.505540695452808608e-01
1.505540695452808608e-01
1.505540695452808608e-01
1.658387466564768820e-01
1.658387466564768820e-01
1.669850974398165711e-01
1.669850974398165711e-01
1.669850974398165711e-01
1.616354604508979664e-01
1.616354604508979664e-01
1.593427588842185605e-01
1.593427588842185605e-01
1.593427588842185605e-01
1.566679403897592582e-01
1.566679403897592582e-01
1.562858234619793618e-01
1.562858234619793618e-01
1.562858234619793618e-01
1.581964081008788714e-01
1.581964081008788714e-01
1.543752388230798522e-01
1.543752388230798522e-01
1.543752388230798522e-01
1.562858234619793618e-01
1.562858234619793618e-01
1.578142911730989750e-01
1.578142911730989750e-01
1.578142911730989750e-01
1.536110049675200595e-01
1.536110049675200595e-01
1.650745128009170892e-01
1.650745128009170892e-01
1.650745128009170892e-01
1.662208635842567783e-01
1.662208635842567783e-01
1.509361864730607572e-01
1.509361864730607572e-01
1.509361864730607572e-01
1.509361864730607572e-01
1.509361864730607572e-01
1.654566297286969856e-01
1.654566297286969856e-01
1.654566297286969856e-01
1.539931218952999559e-01
1.539931218952999559e-01
1.562858234619793618e-01
1.562858234619793618e-01
1.562858234619793618e-01
1.532288880397401631e-01
1.532288880397401631e-01
1.604891096675582773e-01
1.604891096675582773e-01
1.604891096675582773e-01
1.482613679786014549e-01
1.482613679786014549e-01
1.654566297286969856e-01
1.654566297286969856e-01
1.654566297286969856e-01
1.555215896064195691e-01
1.555215896064195691e-01
1.597248758119984846e-01
1.597248758119984846e-01
1.597248758119984846e-01
1.539931218952999559e-01
1.539931218952999559e-01
1.673672143675964952e-01
1.673672143675964952e-01
1.673672143675964952e-01
1.528467711119602668e-01
1.528467711119602668e-01
1.551394726786396727e-01
1.551394726786396727e-01
1.551394726786396727e-01
1.578142911730989750e-01
1.578142911730989750e-01
1.646923958731371929e-01
1.646923958731371929e-01
1.646923958731371929e-01
1.520825372564004463e-01
1.520825372564004463e-01
1.597248758119984846e-01
1.597248758119984846e-01
1.597248758119984846e-01
1.639281620175773724e-01
1.639281620175773724e-01
1.517004203286205499e-01
1.517004203286205499e-01
1.517004203286205499e-01
1.662208635842567783e-01
1.662208635842567783e-01
1.631639281620175796e-01
1.631639281620175796e-01
1.631639281620175796e-01
1.482613679786014549e-01
1.482613679786014549e-01
1.539931218952999559e-01
1.539931218952999559e-01
1.539931218952999559e-01
1.616354604508979664e-01
1.616354604508979664e-01
1.631639281620175796e-01
1.631639281620175796e-01
1.631639281620175796e-01
1.425296140619029539e-01
1.425296140619029539e-01
1.658387466564768820e-01
1.658387466564768820e-01
1.658387466564768820e-01
1.463507833397019453e-01
1.463507833397019453e-01
1.490256018341612476e-01
1.490256018341612476e-01
1.490256018341612476e-01
1.612533435231180701e-01
1.612533435231180701e-01
1.608712265953381737e-01
1.608712265953381737e-01
1.593427588842185605e-01
1.593427588842185605e-01
1.593427588842185605e-01
1.662208635842567783e-01
1.662208635842567783e-01
1.635460450897974760e-01
1.635460450897974760e-01
1.635460450897974760e-01
1.654566297286969856e-01
1.654566297286969856e-01
1.482613679786014549e-01
1.482613679786014549e-01
1.482613679786014549e-01
1.601069927397783810e-01
1.601069927397783810e-01
