4.329384791746274108e-01
4.329384791746274108e-01
4.329384791746274108e-01
4.440198700802445719e-01
4.440198700802445719e-01
4.417271685135651382e-01
4.417271685135651382e-01
4.417271685135651382e-01
4.398165838746656564e-01
4.398165838746656564e-01
4.249140236912495316e-01
4.249140236912495316e-01
4.249140236912495316e-01
4.188001528467711343e-01
4.188001528467711343e-01
4.218570882690103052e-01
4.218570882690103052e-01
4.218570882690103052e-01
4.199465036301108234e-01
4.199465036301108234e-01
4.100114635078334069e-01
4.100114635078334069e-01
4.100114635078334069e-01
4.123041650745127851e-01
4.123041650745127851e-01
4.042797095911349059e-01
4.042797095911349059e-01
4.042797095911349059e-01
4.191822697745510307e-01
4.191822697745510307e-01
4.123041650745127851e-01
4.123041650745127851e-01
4.123041650745127851e-01
4.008406572411157831e-01
4.008406572411157831e-01
3.886129155521589329e-01
3.886129155521589329e-01
3.886129155521589329e-01
3.893771494077187811e-01
3.893771494077187811e-01
3.767672907909820346e-01
3.767672907909820346e-01
3.767672907909820346e-01
3.943446694688574894e-01
3.943446694688574894e-01
3.653037829575850326e-01
3.653037829575850326e-01
3.653037829575850326e-01
3.630110813909055989e-01
3.630110813909055989e-01
3.568972105464272015e-01
3.568972105464272015e-01
3.568972105464272015e-01
3.660680168131448253e-01
3.660680168131448253e-01
3.653037829575850326e-01
3.653037829575850326e-01
3.653037829575850326e-01
3.473442873519296814e-01
3.473442873519296814e-01
3.431410011463507659e-01
3.431410011463507659e-01
3.431410011463507659e-01
3.458158196408100959e-01
3.458158196408100959e-01
3.335880779518532457e-01
3.335880779518532457e-01
3.335880779518532457e-01
3.347344287351929903e-01
3.347344287351929903e-01
3.347344287351929903e-01
3.347344287351929903e-01
3.347344287351929903e-01
3.213603362628964510e-01
3.213603362628964510e-01
3.236530378295758292e-01
3.236530378295758292e-01
3.236530378295758292e-01
3.041650745128008926e-01
3.041650745128008926e-01
3.137179977072984127e-01
3.137179977072984127e-01
3.137179977072984127e-01
3.053114252961406372e-01
3.053114252961406372e-01
2.961406190294230134e-01
2.961406190294230134e-01
2.961406190294230134e-01
2.953763851738632207e-01
2.953763851738632207e-01
2.953763851738632207e-01
2.953763851738632207e-01
2.953763851738632207e-01
2.888803974016048715e-01
2.888803974016048715e-01
2.854413450515858042e-01
2.854413450515858042e-01
2.854413450515858042e-01
2.812380588460068886e-01
2.812380588460068886e-01
2.552541077569736583e-01
2.552541077569736583e-01
2.552541077569736583e-01
2.567825754680932437e-01
2.567825754680932437e-01
2.586931601069927256e-01
2.586931601069927256e-01
2.586931601069927256e-01
2.663354986625907639e-01
2.663354986625907639e-01
2.644249140236912266e-01
2.644249140236912266e-01
2.644249140236912266e-01
2.464654184180359309e-01
2.464654184180359309e-01
2.437905999235766008e-01
2.437905999235766008e-01
2.437905999235766008e-01
2.414978983568972226e-01
2.414978983568972226e-01
2.434084829957967044e-01
2.434084829957967044e-01
2.434084829957967044e-01
2.353840275124187975e-01
2.353840275124187975e-01
2.449369507069163177e-01
2.449369507069163177e-01
2.449369507069163177e-01
2.372946121513183071e-01
2.372946121513183071e-01
2.208635842567825691e-01
2.208635842567825691e-01
2.208635842567825691e-01
2.323270920901795988e-01
2.323270920901795988e-01
2.200993504012227764e-01
2.200993504012227764e-01
2.200993504012227764e-01
2.170424149789835777e-01
2.170424149789835777e-01
2.082537256400458503e-01
2.082537256400458503e-01
2.269774551012609942e-01
2.269774551012609942e-01
2.269774551012609942e-01
2.071073748567061612e-01
2.071073748567061612e-01
2.147497134123041718e-01
2.147497134123041718e-01
2.147497134123041718e-01
2.258311043179212774e-01
2.258311043179212774e-01
2.204814673290026728e-01
2.204814673290026728e-01
2.204814673290026728e-01
2.223920519679021823e-01
2.223920519679021823e-01
2.006113870844478397e-01
2.006113870844478397e-01
2.006113870844478397e-01
1.967902178066488483e-01
1.967902178066488483e-01
1.983186855177684338e-01
1.983186855177684338e-01
1.983186855177684338e-01
1.979365685899885374e-01
1.979365685899885374e-01
1.960259839510890278e-01
1.960259839510890278e-01
1.960259839510890278e-01
2.193351165456629837e-01
2.193351165456629837e-01
2.090179594956056430e-01
2.090179594956056430e-01
2.090179594956056430e-01
1.983186855177684338e-01
1.983186855177684338e-01
2.105464272067252562e-01
2.105464272067252562e-01
2.105464272067252562e-01
1.960259839510890278e-01
1.960259839510890278e-01
1.910584638899503196e-01
1.910584638899503196e-01
1.910584638899503196e-01
1.910584638899503196e-01
1.910584638899503196e-01
1.826518914787925163e-01
1.826518914787925163e-01
1.826518914787925163e-01
1.975544516622086411e-01
1.975544516622086411e-01
1.967902178066488483e-01
1.967902178066488483e-01
1.967902178066488483e-01
1.906763469621704232e-01
1.906763469621704232e-01
2.048146732900267553e-01
2.048146732900267553e-01
2.048146732900267553e-01
1.983186855177684338e-01
1.983186855177684338e-01
1.933511654566297255e-01
1.933511654566297255e-01
1.933511654566297255e-01
1.784486052732136008e-01
1.784486052732136008e-01
1.964081008788689242e-01
1.964081008788689242e-01
1.964081008788689242e-01
1.868551776843714041e-01
1.868551776843714041e-01
1.834161253343523090e-01
1.834161253343523090e-01
1.834161253343523090e-01
1.765380206343140912e-01
1.765380206343140912e-01
1.723347344287352034e-01
1.723347344287352034e-01
1.723347344287352034e-01
1.922048146732900364e-01
1.922048146732900364e-01
1.711883836453954866e-01
1.711883836453954866e-01
1.711883836453954866e-01
1.643102789453572687e-01
1.643102789453572687e-01
1.864730607565915077e-01
1.864730607565915077e-01
1.864730607565915077e-01
1.627818112342376833e-01
1.627818112342376833e-01
1.646923958731371929e-01
1.646923958731371929e-01
1.646923958731371929e-01
1.837982422621322054e-01
1.837982422621322054e-01
1.792128391287733935e-01
1.792128391287733935e-01
1.792128391287733935e-01
1.750095529231945057e-01
1.750095529231945057e-01
1.742453190676346853e-01
1.742453190676346853e-01
1.742453190676346853e-01
1.650745128009170892e-01
1.650745128009170892e-01
1.685135651509361843e-01
1.685135651509361843e-01
1.685135651509361843e-01
1.509361864730607572e-01
1.509361864730607572e-01
1.517004203286205499e-01
1.517004203286205499e-01
1.517004203286205499e-01
1.444401987008024357e-01
1.444401987008024357e-01
1.631639281620175796e-01
1.631639281620175796e-01
1.631639281620175796e-01
1.429117309896828503e-01
1.429117309896828503e-01
1.559037065341994654e-01
1.559037065341994654e-01
1.559037065341994654e-01
1.513183034008406536e-01
1.513183034008406536e-01
1.387084447841039347e-01
1.387084447841039347e-01
1.387084447841039347e-01
1.547573557508597764e-01
1.547573557508597764e-01
1.345051585785250192e-01
1.345051585785250192e-01
1.345051585785250192e-01
1.364157432174245288e-01
1.364157432174245288e-01
1.432938479174627466e-01
1.432938479174627466e-01
1.432938479174627466e-01
1.314482231562858205e-01
1.314482231562858205e-01
1.387084447841039347e-01
1.387084447841039347e-01
1.387084447841039347e-01
1.283912877340466219e-01
1.283912877340466219e-01
1.371799770729843215e-01
1.371799770729843215e-01
1.371799770729843215e-01
1.260985861673672159e-01
1.260985861673672159e-01
1.215131830340084040e-01
1.215131830340084040e-01
1.215131830340084040e-01
1.283912877340466219e-01
1.283912877340466219e-01
1.367978601452044252e-01
1.367978601452044252e-01
1.367978601452044252e-01
1.318303400840657169e-01
1.318303400840657169e-01
1.127244936950706905e-01
1.127244936950706905e-01
1.127244936950706905e-01
1.142529614061902898e-01
1.142529614061902898e-01
1.325945739396255374e-01
1.325945739396255374e-01
1.325945739396255374e-01
1.253343523118074232e-01
1.253343523118074232e-01
1.050821551394726799e-01
1.050821551394726799e-01
1.050821551394726799e-01
1.264807030951471123e-01
1.264807030951471123e-01
1.024073366450133776e-01
1.024073366450133776e-01
1.024073366450133776e-01
1.089033244172716852e-01
1.089033244172716852e-01
1.226595338173481070e-01
1.226595338173481070e-01
1.226595338173481070e-01
1.157814291173099031e-01
1.157814291173099031e-01
1.180741306839892951e-01
1.180741306839892951e-01
1.180741306839892951e-01
9.629346580053496640e-02
9.629346580053496640e-02
1.043179212839128733e-01
1.043179212839128733e-01
1.043179212839128733e-01
1.012609858616736747e-01
1.012609858616736747e-01
1.138708444784103935e-01
1.138708444784103935e-01
1.138708444784103935e-01
1.016431027894535710e-01
1.016431027894535710e-01
1.016431027894535710e-01
1.016431027894535710e-01
1.039358043561329770e-01
1.039358043561329770e-01
1.039358043561329770e-01
1.043179212839128733e-01
1.043179212839128733e-01
9.629346580053496640e-02
9.629346580053496640e-02
9.629346580053496640e-02
9.514711501719526343e-02
9.514711501719526343e-02
8.750477646159725287e-02
8.750477646159725287e-02
8.750477646159725287e-02
1.066106228505922793e-01
1.066106228505922793e-01
8.674054260603744626e-02
8.674054260603744626e-02
8.674054260603744626e-02
8.291937332823844098e-02
8.291937332823844098e-02
9.209017959495605088e-02
9.209017959495605088e-02
9.209017959495605088e-02
9.782193351165456574e-02
9.782193351165456574e-02
7.909820405043943570e-02
7.909820405043943570e-02
7.909820405043943570e-02
9.514711501719526343e-02
9.514711501719526343e-02
9.361864730607566409e-02
9.361864730607566409e-02
9.361864730607566409e-02
9.782193351165456574e-02
9.782193351165456574e-02
9.552923194497515980e-02
9.552923194497515980e-02
9.552923194497515980e-02
7.833397019487962909e-02
7.833397019487962909e-02
9.552923194497515980e-02
9.552923194497515980e-02
9.552923194497515980e-02
7.833397019487962909e-02
7.833397019487962909e-02
8.062667176155903503e-02
8.062667176155903503e-02
8.062667176155903503e-02
8.788689338937714923e-02
8.788689338937714923e-02
7.374856706152083108e-02
7.374856706152083108e-02
7.374856706152083108e-02
8.177302254489873801e-02
8.177302254489873801e-02
9.743981658387466938e-02
9.743981658387466938e-02
9.743981658387466938e-02
8.903324417271685220e-02
8.903324417271685220e-02
7.413068398930072744e-02
7.413068398930072744e-02
7.413068398930072744e-02
8.139090561711884164e-02
8.139090561711884164e-02
9.209017959495605088e-02
9.209017959495605088e-02
9.209017959495605088e-02
8.444784103935804032e-02
8.444784103935804032e-02
8.024455483377913867e-02
8.024455483377913867e-02
8.024455483377913867e-02
9.132594573939625815e-02
9.132594573939625815e-02
7.298433320596102447e-02
7.298433320596102447e-02
7.298433320596102447e-02
9.017959495605655518e-02
9.017959495605655518e-02
6.725257928926250961e-02
6.725257928926250961e-02
6.725257928926250961e-02
8.941536110049674857e-02
8.941536110049674857e-02
7.069163163928161853e-02
7.069163163928161853e-02
7.069163163928161853e-02
7.260221627818112811e-02
7.260221627818112811e-02
6.648834543370271688e-02
6.648834543370271688e-02
6.648834543370271688e-02
9.667558272831486277e-02
9.667558272831486277e-02
8.330149025601833734e-02
8.330149025601833734e-02
8.330149025601833734e-02
7.909820405043943570e-02
7.909820405043943570e-02
8.826901031715704560e-02
8.826901031715704560e-02
8.826901031715704560e-02
8.291937332823844098e-02
8.291937332823844098e-02
8.482995796713795056e-02
8.482995796713795056e-02
8.482995796713795056e-02
6.954528085594191555e-02
6.954528085594191555e-02
8.368360718379824759e-02
8.368360718379824759e-02
8.368360718379824759e-02
6.916316392816201919e-02
6.916316392816201919e-02
8.024455483377913867e-02
8.024455483377913867e-02
8.024455483377913867e-02
7.298433320596102447e-02
7.298433320596102447e-02
8.750477646159725287e-02
8.750477646159725287e-02
8.750477646159725287e-02
8.444784103935804032e-02
8.444784103935804032e-02
6.648834543370271688e-02
6.648834543370271688e-02
6.648834543370271688e-02
7.680550248376002975e-02
7.680550248376002975e-02
6.457776079480320730e-02
6.457776079480320730e-02
6.457776079480320730e-02
8.024455483377913867e-02
8.024455483377913867e-02
8.177302254489873801e-02
8.177302254489873801e-02
8.177302254489873801e-02
6.343141001146350433e-02
6.343141001146350433e-02
8.482995796713795056e-02
8.482995796713795056e-02
8.482995796713795056e-02
6.992739778372182580e-02
6.992739778372182580e-02
6.304929308368360796e-02
6.304929308368360796e-02
6.304929308368360796e-02
6.648834543370271688e-02
6.648834543370271688e-02
6.419564386702331094e-02
6.419564386702331094e-02
6.419564386702331094e-02
6.992739778372182580e-02
6.992739778372182580e-02
8.635842567825754990e-02
8.635842567825754990e-02
8.635842567825754990e-02
7.527703477264043042e-02
7.527703477264043042e-02
9.056171188383645154e-02
9.056171188383645154e-02
9.056171188383645154e-02
7.260221627818112811e-02
7.260221627818112811e-02
7.795185326709973272e-02
7.795185326709973272e-02
7.795185326709973272e-02
7.871608712265953933e-02
7.871608712265953933e-02
1.050821551394726799e-01
1.050821551394726799e-01
1.050821551394726799e-01
9.476499808941536707e-02
9.476499808941536707e-02
9.782193351165456574e-02
9.782193351165456574e-02
9.782193351165456574e-02
1.150171952617500964e-01
1.150171952617500964e-01
1.253343523118074232e-01
1.253343523118074232e-01
1.253343523118074232e-01
1.146350783339702001e-01
1.146350783339702001e-01
1.394726786396637275e-01
1.394726786396637275e-01
1.394726786396637275e-01
1.471150171952617380e-01
1.471150171952617380e-01
1.421474971341230298e-01
1.421474971341230298e-01
1.421474971341230298e-01
1.711883836453954866e-01
1.711883836453954866e-01
1.818876576232326958e-01
1.818876576232326958e-01
1.818876576232326958e-01
1.853267099732518186e-01
1.853267099732518186e-01
2.002292701566679434e-01
2.002292701566679434e-01
2.002292701566679434e-01
2.105464272067252562e-01
2.105464272067252562e-01
2.239205196790217678e-01
2.239205196790217678e-01
2.537256400458540173e-01
2.537256400458540173e-01
2.537256400458540173e-01
2.541077569736339137e-01
2.541077569736339137e-01
2.881161635460450787e-01
2.881161635460450787e-01
2.881161635460450787e-01
2.862055789071455969e-01
2.862055789071455969e-01
3.007260221627818253e-01
3.007260221627818253e-01
3.007260221627818253e-01
3.095147115017195527e-01
3.095147115017195527e-01
3.332059610240733494e-01
3.332059610240733494e-01
3.332059610240733494e-01
3.580435613297668906e-01
3.580435613297668906e-01
3.687428353076040999e-01
3.687428353076040999e-01
3.687428353076040999e-01
3.763851738632021382e-01
3.763851738632021382e-01
3.909056171188383666e-01
3.909056171188383666e-01
3.909056171188383666e-01
3.867023309132594511e-01
3.867023309132594511e-01
3.916698509743981593e-01
3.916698509743981593e-01
3.916698509743981593e-01
4.008406572411157831e-01
4.008406572411157831e-01
4.145968666411922188e-01
4.145968666411922188e-01
4.145968666411922188e-01
4.352311807413068445e-01
4.352311807413068445e-01
4.352311807413068445e-01
4.352311807413068445e-01
4.352311807413068445e-01
4.558654948414214703e-01
4.558654948414214703e-01
4.482231562858234875e-01
4.482231562858234875e-01
4.482231562858234875e-01
4.654184180359189904e-01
4.654184180359189904e-01
4.589224302636606967e-01
4.589224302636606967e-01
4.589224302636606967e-01
4.677111196025983686e-01
4.677111196025983686e-01
4.642720672525793013e-01
4.642720672525793013e-01
4.642720672525793013e-01
4.711501719526174914e-01
4.711501719526174914e-01
4.726786396637370768e-01
4.726786396637370768e-01
4.726786396637370768e-01
4.696217042414979059e-01
4.696217042414979059e-01
4.868169659915934089e-01
4.868169659915934089e-01
4.868169659915934089e-01
4.776461597248757851e-01
4.776461597248757851e-01
4.780282766526557370e-01
4.780282766526557370e-01
4.780282766526557370e-01
4.818494459304547006e-01
4.818494459304547006e-01
4.910202521971723244e-01
4.910202521971723244e-01
4.910202521971723244e-01
4.868169659915934089e-01
4.868169659915934089e-01
5.036301108139090710e-01
5.036301108139090710e-01
5.036301108139090710e-01
4.818494459304547006e-01
4.818494459304547006e-01
4.849063813526939271e-01
4.849063813526939271e-01
4.849063813526939271e-01
4.822315628582345970e-01
4.822315628582345970e-01
4.845242644249140307e-01
4.845242644249140307e-01
4.845242644249140307e-01
4.795567443637753224e-01
4.795567443637753224e-01
4.914023691249522208e-01
4.914023691249522208e-01
4.914023691249522208e-01
4.860527321360336162e-01
4.860527321360336162e-01
4.826136797860144934e-01
4.826136797860144934e-01
4.826136797860144934e-01
4.871990829193733052e-01
4.871990829193733052e-01
4.833779136415743416e-01
4.833779136415743416e-01
4.833779136415743416e-01
4.791746274359954261e-01
4.791746274359954261e-01
4.914023691249522208e-01
4.914023691249522208e-01
4.914023691249522208e-01
4.726786396637370768e-01
4.726786396637370768e-01
4.703859380970576987e-01
4.703859380970576987e-01
4.703859380970576987e-01
4.849063813526939271e-01
4.849063813526939271e-01
4.841421474971341343e-01
4.841421474971341343e-01
4.841421474971341343e-01
4.623614826136797640e-01
4.623614826136797640e-01
4.650363011081390940e-01
4.650363011081390940e-01
4.650363011081390940e-01
4.703859380970576987e-01
4.703859380970576987e-01
4.646541841803591977e-01
4.646541841803591977e-01
4.646541841803591977e-01
4.547191440580817812e-01
4.547191440580817812e-01
4.508979747802827620e-01
4.508979747802827620e-01
4.508979747802827620e-01
4.726786396637370768e-01
4.726786396637370768e-01
4.466946885747038465e-01
4.466946885747038465e-01
4.466946885747038465e-01
4.417271685135651382e-01
4.417271685135651382e-01
4.501337409247229693e-01
4.501337409247229693e-01
4.501337409247229693e-01
4.340848299579671554e-01
4.340848299579671554e-01
4.337027130301872591e-01
4.337027130301872591e-01
4.337027130301872591e-01
4.317921283912877217e-01
4.317921283912877217e-01
4.348490638135269482e-01
4.348490638135269482e-01
4.348490638135269482e-01
4.207107374856706161e-01
4.207107374856706161e-01
4.226213221245700979e-01
4.226213221245700979e-01
4.226213221245700979e-01
4.145968666411922188e-01
4.145968666411922188e-01
4.188001528467711343e-01
4.188001528467711343e-01
4.188001528467711343e-01
4.119220481467328887e-01
4.119220481467328887e-01
4.264424914023691171e-01
4.264424914023691171e-01
4.264424914023691171e-01
4.207107374856706161e-01
4.207107374856706161e-01
4.230034390523499943e-01
4.230034390523499943e-01
4.230034390523499943e-01
4.012227741688956795e-01
4.012227741688956795e-01
4.073366450133740768e-01
4.073366450133740768e-01
4.073366450133740768e-01
4.016048910966755758e-01
4.016048910966755758e-01
3.947267863966373858e-01
3.947267863966373858e-01
3.947267863966373858e-01
3.993121895299961976e-01
3.993121895299961976e-01
3.889950324799388848e-01
3.889950324799388848e-01
3.889950324799388848e-01
3.920519679021780557e-01
3.920519679021780557e-01
3.851738632021398656e-01
3.851738632021398656e-01
3.851738632021398656e-01
3.653037829575850326e-01
3.653037829575850326e-01
3.679786014520443072e-01
3.679786014520443072e-01
3.641574321742453435e-01
3.641574321742453435e-01
3.641574321742453435e-01
3.618647306075659098e-01
3.618647306075659098e-01
3.607183798242262207e-01
3.607183798242262207e-01
3.607183798242262207e-01
3.358807795185326794e-01
3.358807795185326794e-01
3.316774933129537639e-01
3.316774933129537639e-01
3.316774933129537639e-01
3.179212839128773282e-01
3.179212839128773282e-01
3.339701948796331421e-01
3.339701948796331421e-01
3.339701948796331421e-01
3.076041268628200154e-01
3.076041268628200154e-01
3.045471914405808445e-01
3.045471914405808445e-01
3.045471914405808445e-01
3.255636224684753666e-01
3.255636224684753666e-01
3.179212839128773282e-01
3.179212839128773282e-01
3.179212839128773282e-01
3.041650745128008926e-01
3.041650745128008926e-01
3.106610622850592418e-01
3.106610622850592418e-01
3.106610622850592418e-01
2.930836836071837870e-01
2.930836836071837870e-01
2.823844096293465777e-01
2.823844096293465777e-01
2.823844096293465777e-01
2.816201757737867850e-01
2.816201757737867850e-01
2.911730989682843052e-01
2.911730989682843052e-01
2.911730989682843052e-01
2.816201757737867850e-01
2.816201757737867850e-01
2.697745510126098312e-01
2.697745510126098312e-01
2.697745510126098312e-01
2.690103171570500384e-01
2.690103171570500384e-01
2.701566679403897830e-01
2.701566679403897830e-01
2.701566679403897830e-01
2.670997325181505566e-01
2.670997325181505566e-01
2.575468093236530365e-01
2.575468093236530365e-01
2.575468093236530365e-01
2.544898739014138100e-01
2.544898739014138100e-01
2.552541077569736583e-01
2.552541077569736583e-01
2.552541077569736583e-01
2.460833014902560067e-01
2.460833014902560067e-01
2.342376767290791084e-01
2.342376767290791084e-01
2.342376767290791084e-01
2.338555598012991843e-01
2.338555598012991843e-01
2.434084829957967044e-01
2.434084829957967044e-01
2.434084829957967044e-01
2.262132212457011737e-01
2.262132212457011737e-01
2.273595720290408906e-01
2.273595720290408906e-01
2.273595720290408906e-01
2.265953381734810979e-01
2.265953381734810979e-01
2.288880397401604760e-01
2.288880397401604760e-01
2.288880397401604760e-01
2.330913259457393916e-01
2.330913259457393916e-01
2.372946121513183071e-01
2.372946121513183071e-01
2.372946121513183071e-01
2.097821933511654635e-01
2.097821933511654635e-01
2.143675964845242754e-01
2.143675964845242754e-01
2.143675964845242754e-01
2.227741688956820787e-01
2.227741688956820787e-01
2.101643102789453599e-01
2.101643102789453599e-01
2.101643102789453599e-01
2.097821933511654635e-01
2.097821933511654635e-01
2.273595720290408906e-01
2.273595720290408906e-01
2.273595720290408906e-01
2.262132212457011737e-01
2.262132212457011737e-01
2.048146732900267553e-01
2.048146732900267553e-01
2.048146732900267553e-01
2.067252579289262648e-01
2.067252579289262648e-01
2.048146732900267553e-01
2.048146732900267553e-01
2.048146732900267553e-01
2.029040886511272457e-01
2.029040886511272457e-01
2.078716087122659539e-01
2.078716087122659539e-01
2.078716087122659539e-01
1.964081008788689242e-01
1.964081008788689242e-01
1.941153993121895183e-01
1.941153993121895183e-01
1.941153993121895183e-01
2.193351165456629837e-01
2.193351165456629837e-01
1.941153993121895183e-01
1.941153993121895183e-01
1.941153993121895183e-01
1.880015284677111209e-01
1.880015284677111209e-01
2.048146732900267553e-01
2.048146732900267553e-01
2.048146732900267553e-01
1.929690485288498292e-01
1.929690485288498292e-01
2.036683225066870384e-01
2.036683225066870384e-01
2.036683225066870384e-01
1.872372946121513282e-01
1.872372946121513282e-01
1.837982422621322054e-01
1.837982422621322054e-01
1.837982422621322054e-01
2.025219717233473493e-01
2.025219717233473493e-01
1.956438670233091315e-01
1.956438670233091315e-01
1.956438670233091315e-01
2.044325563622468589e-01
2.044325563622468589e-01
1.876194115399312246e-01
1.876194115399312246e-01
1.876194115399312246e-01
1.880015284677111209e-01
1.880015284677111209e-01
1.944975162399694424e-01
1.944975162399694424e-01
1.944975162399694424e-01
1.776843714176538080e-01
1.776843714176538080e-01
1.887657623232709136e-01
1.887657623232709136e-01
1.887657623232709136e-01
1.883836453954910173e-01
1.883836453954910173e-01
1.811234237676729031e-01
1.811234237676729031e-01
1.811234237676729031e-01
1.807413068398930067e-01
1.807413068398930067e-01
1.700420328620557975e-01
1.700420328620557975e-01
1.700420328620557975e-01
1.750095529231945057e-01
1.750095529231945057e-01
1.738632021398547889e-01
1.738632021398547889e-01
1.738632021398547889e-01
1.868551776843714041e-01
1.868551776843714041e-01
1.761559037065341948e-01
1.761559037065341948e-01
1.761559037065341948e-01
1.738632021398547889e-01
1.738632021398547889e-01
1.807413068398930067e-01
1.807413068398930067e-01
1.807413068398930067e-01
1.803591899121131104e-01
1.803591899121131104e-01
1.681314482231562879e-01
1.681314482231562879e-01
1.681314482231562879e-01
1.773022544898739117e-01
1.773022544898739117e-01
1.635460450897974760e-01
1.635460450897974760e-01
1.635460450897974760e-01
1.646923958731371929e-01
1.646923958731371929e-01
1.643102789453572687e-01
1.643102789453572687e-01
1.627818112342376833e-01
1.627818112342376833e-01
1.627818112342376833e-01
1.539931218952999559e-01
1.539931218952999559e-01
1.677493312953763915e-01
1.677493312953763915e-01
1.677493312953763915e-01
1.517004203286205499e-01
1.517004203286205499e-01
1.555215896064195691e-01
1.555215896064195691e-01
1.555215896064195691e-01
1.562858234619793618e-01
1.562858234619793618e-01
1.459686664119220489e-01
1.459686664119220489e-01
1.459686664119220489e-01
1.643102789453572687e-01
1.643102789453572687e-01
1.432938479174627466e-01
1.432938479174627466e-01
1.432938479174627466e-01
1.551394726786396727e-01
1.551394726786396727e-01
1.574321742453190787e-01
1.574321742453190787e-01
1.574321742453190787e-01
1.322124570118456133e-01
1.322124570118456133e-01
1.325945739396255374e-01
1.325945739396255374e-01
1.325945739396255374e-01
1.482613679786014549e-01
1.482613679786014549e-01
1.501719526175009645e-01
1.501719526175009645e-01
1.501719526175009645e-01
1.345051585785250192e-01
1.345051585785250192e-01
1.322124570118456133e-01
1.322124570118456133e-01
1.322124570118456133e-01
1.375620940007642456e-01
1.375620940007642456e-01
1.215131830340084040e-01
1.215131830340084040e-01
1.215131830340084040e-01
1.253343523118074232e-01
1.253343523118074232e-01
1.215131830340084040e-01
1.215131830340084040e-01
1.215131830340084040e-01
1.410011463507833407e-01
1.410011463507833407e-01
1.291555215896064146e-01
1.291555215896064146e-01
1.291555215896064146e-01
1.142529614061902898e-01
1.142529614061902898e-01
1.119602598395108839e-01
1.119602598395108839e-01
1.119602598395108839e-01
1.345051585785250192e-01
1.345051585785250192e-01
1.207489491784486113e-01
1.207489491784486113e-01
1.207489491784486113e-01
1.146350783339702001e-01
1.146350783339702001e-01
1.218952999617883004e-01
1.218952999617883004e-01
1.218952999617883004e-01
1.092854413450515816e-01
1.092854413450515816e-01
1.241880015284677063e-01
1.241880015284677063e-01
1.241880015284677063e-01
1.150171952617500964e-01
1.150171952617500964e-01
1.081390905617118786e-01
1.081390905617118786e-01
1.081390905617118786e-01
1.077569736339319822e-01
1.077569736339319822e-01
1.180741306839892951e-01
1.180741306839892951e-01
1.180741306839892951e-01
1.081390905617118786e-01
1.081390905617118786e-01
1.077569736339319822e-01
1.077569736339319822e-01
1.077569736339319822e-01
1.184562476117692054e-01
1.184562476117692054e-01
9.361864730607566409e-02
9.361864730607566409e-02
9.361864730607566409e-02
1.108139090561711948e-01
1.108139090561711948e-01
9.743981658387466938e-02
9.743981658387466938e-02
9.743981658387466938e-02
1.027894535727932740e-01
1.027894535727932740e-01
1.008788689338937783e-01
1.008788689338937783e-01
1.008788689338937783e-01
9.667558272831486277e-02
9.667558272831486277e-02
1.066106228505922793e-01
1.066106228505922793e-01
1.066106228505922793e-01
1.035536874283530806e-01
1.035536874283530806e-01
9.170806266717615451e-02
9.170806266717615451e-02
9.170806266717615451e-02
1.127244936950706905e-01
1.127244936950706905e-01
1.024073366450133776e-01
1.024073366450133776e-01
1.024073366450133776e-01
8.750477646159725287e-02
8.750477646159725287e-02
1.001146350783339717e-01
1.001146350783339717e-01
1.001146350783339717e-01
9.438288116163545682e-02
9.438288116163545682e-02
9.094382881161634791e-02
9.094382881161634791e-02
9.094382881161634791e-02
1.085212074894917889e-01
1.085212074894917889e-01
1.024073366450133776e-01
1.024073366450133776e-01
1.024073366450133776e-01
9.514711501719526343e-02
9.514711501719526343e-02
8.597630875047763965e-02
8.597630875047763965e-02
8.597630875047763965e-02
1.001146350783339717e-01
1.001146350783339717e-01
9.209017959495605088e-02
9.209017959495605088e-02
9.209017959495605088e-02
9.285441345051585749e-02
9.285441345051585749e-02
8.941536110049674857e-02
8.941536110049674857e-02
8.941536110049674857e-02
9.667558272831486277e-02
9.667558272831486277e-02
9.591134887275505616e-02
9.591134887275505616e-02
9.591134887275505616e-02
8.674054260603744626e-02
8.674054260603744626e-02
9.858616736721437235e-02
9.858616736721437235e-02
9.858616736721437235e-02
8.979747802827665881e-02
8.979747802827665881e-02
8.139090561711884164e-02
8.139090561711884164e-02
8.139090561711884164e-02
7.680550248376002975e-02
7.680550248376002975e-02
9.209017959495605088e-02
9.209017959495605088e-02
9.209017959495605088e-02
9.056171188383645154e-02
9.056171188383645154e-02
7.183798242262132150e-02
7.183798242262132150e-02
7.183798242262132150e-02
8.865112724493695584e-02
8.865112724493695584e-02
8.979747802827665881e-02
8.979747802827665881e-02
8.979747802827665881e-02
8.941536110049674857e-02
8.941536110049674857e-02
6.725257928926250961e-02
6.725257928926250961e-02
6.725257928926250961e-02
8.750477646159725287e-02
8.750477646159725287e-02
8.100878868933893140e-02
8.100878868933893140e-02
8.100878868933893140e-02
8.482995796713795056e-02
8.482995796713795056e-02
7.527703477264043042e-02
7.527703477264043042e-02
7.527703477264043042e-02
8.788689338937714923e-02
8.788689338937714923e-02
7.948032097821933206e-02
7.948032097821933206e-02
7.948032097821933206e-02
6.343141001146350433e-02
6.343141001146350433e-02
8.215513947267863437e-02
8.215513947267863437e-02
6.228505922812380829e-02
6.228505922812380829e-02
6.228505922812380829e-02
5.999235766144440235e-02
5.999235766144440235e-02
6.304929308368360796e-02
6.304929308368360796e-02
6.304929308368360796e-02
5.808177302254489971e-02
5.808177302254489971e-02
6.419564386702331094e-02
6.419564386702331094e-02
6.419564386702331094e-02
7.909820405043943570e-02
7.909820405043943570e-02
5.884600687810469938e-02
5.884600687810469938e-02
5.884600687810469938e-02
7.069163163928161853e-02
7.069163163928161853e-02
5.922812380588460268e-02
5.922812380588460268e-02
5.922812380588460268e-02
7.948032097821933206e-02
7.948032097821933206e-02
6.801681314482231622e-02
6.801681314482231622e-02
6.801681314482231622e-02
6.381352693924341457e-02
6.381352693924341457e-02
5.578907145586549376e-02
5.578907145586549376e-02
5.578907145586549376e-02
6.381352693924341457e-02
6.381352693924341457e-02
7.565915170042032678e-02
7.565915170042032678e-02
7.565915170042032678e-02
6.725257928926250961e-02
6.725257928926250961e-02
8.215513947267863437e-02
8.215513947267863437e-02
8.215513947267863437e-02
8.215513947267863437e-02
8.215513947267863437e-02
6.495987772258310367e-02
6.495987772258310367e-02
6.495987772258310367e-02
8.788689338937714923e-02
8.788689338937714923e-02
7.756973633931983636e-02
7.756973633931983636e-02
7.756973633931983636e-02
9.132594573939625815e-02
9.132594573939625815e-02
8.788689338937714923e-02
8.788689338937714923e-02
8.788689338937714923e-02
9.323653037829575385e-02
9.323653037829575385e-02
9.858616736721437235e-02
9.858616736721437235e-02
9.858616736721437235e-02
1.207489491784486113e-01
1.207489491784486113e-01
1.402369124952235480e-01
1.402369124952235480e-01
1.402369124952235480e-01
1.348872755063049156e-01
1.348872755063049156e-01
1.559037065341994654e-01
1.559037065341994654e-01
1.559037065341994654e-01
1.750095529231945057e-01
1.750095529231945057e-01
1.700420328620557975e-01
1.700420328620557975e-01
1.700420328620557975e-01
1.876194115399312246e-01
1.876194115399312246e-01
1.975544516622086411e-01
1.975544516622086411e-01
1.975544516622086411e-01
2.128391287734046622e-01
2.128391287734046622e-01
2.403515475735575058e-01
2.403515475735575058e-01
2.403515475735575058e-01
2.617500955292319520e-01
2.617500955292319520e-01
2.590752770347726219e-01
2.590752770347726219e-01
2.590752770347726219e-01
2.762705387848681804e-01
2.762705387848681804e-01
3.030187237294612035e-01
3.030187237294612035e-01
3.030187237294612035e-01
3.072220099350401190e-01
3.072220099350401190e-01
3.312953763851738676e-01
3.312953763851738676e-01
3.312953763851738676e-01
3.458158196408100959e-01
3.458158196408100959e-01
3.500191058463890115e-01
3.500191058463890115e-01
3.500191058463890115e-01
3.710355368742835336e-01
3.710355368742835336e-01
3.817348108521207428e-01
3.817348108521207428e-01
3.817348108521207428e-01
3.752388230798624491e-01
3.752388230798624491e-01
3.928162017577378484e-01
3.928162017577378484e-01
3.928162017577378484e-01
4.115399312189529923e-01
4.115399312189529923e-01
4.081008788689338695e-01
4.081008788689338695e-01
4.081008788689338695e-01
4.115399312189529923e-01
4.115399312189529923e-01
4.371417653802063263e-01
4.371417653802063263e-01
4.371417653802063263e-01
4.367596484524264300e-01
4.367596484524264300e-01
4.394344669468857600e-01
4.394344669468857600e-01
4.394344669468857600e-01
4.512800917080626584e-01
4.512800917080626584e-01
4.665647688192586795e-01
4.665647688192586795e-01
4.665647688192586795e-01
4.665647688192586795e-01
4.665647688192586795e-01
4.547191440580817812e-01
4.547191440580817812e-01
4.547191440580817812e-01
4.776461597248757851e-01
4.776461597248757851e-01
4.814673290026748043e-01
4.814673290026748043e-01
4.814673290026748043e-01
4.795567443637753224e-01
4.795567443637753224e-01
4.677111196025983686e-01
4.677111196025983686e-01
4.677111196025983686e-01
4.703859380970576987e-01
4.703859380970576987e-01
4.887275506304929462e-01
4.887275506304929462e-01
4.887275506304929462e-01
4.810852120748949079e-01
4.810852120748949079e-01
4.956056553305311363e-01
4.956056553305311363e-01
4.956056553305311363e-01
4.829957967137944452e-01
4.829957967137944452e-01
4.971341230416507218e-01
4.971341230416507218e-01
4.971341230416507218e-01
4.883454337027130499e-01
4.883454337027130499e-01
4.845242644249140307e-01
4.845242644249140307e-01
4.845242644249140307e-01
4.990447076805502591e-01
4.990447076805502591e-01
4.875811998471532016e-01
4.875811998471532016e-01
4.875811998471532016e-01
4.791746274359954261e-01
4.791746274359954261e-01
4.959877722583110327e-01
4.959877722583110327e-01
4.959877722583110327e-01
4.757355750859763033e-01
4.757355750859763033e-01
4.883454337027130499e-01
4.883454337027130499e-01
4.883454337027130499e-01
4.971341230416507218e-01
4.971341230416507218e-01
4.936950706916316545e-01
4.936950706916316545e-01
4.936950706916316545e-01
4.829957967137944452e-01
4.829957967137944452e-01
4.871990829193733052e-01
4.871990829193733052e-01
4.871990829193733052e-01
4.944593045471914472e-01
4.944593045471914472e-01
4.757355750859763033e-01
4.757355750859763033e-01
4.914023691249522208e-01
4.914023691249522208e-01
4.914023691249522208e-01
4.722965227359571805e-01
4.722965227359571805e-01
4.871990829193733052e-01
4.871990829193733052e-01
4.871990829193733052e-01
4.818494459304547006e-01
4.818494459304547006e-01
4.738249904470768215e-01
4.738249904470768215e-01
4.738249904470768215e-01
4.673290026748184722e-01
4.673290026748184722e-01
4.829957967137944452e-01
4.829957967137944452e-01
4.829957967137944452e-01
4.623614826136797640e-01
4.623614826136797640e-01
4.768819258693159924e-01
4.768819258693159924e-01
4.768819258693159924e-01
4.661826518914787831e-01
4.661826518914787831e-01
4.738249904470768215e-01
4.738249904470768215e-01
4.738249904470768215e-01
4.577760794803209521e-01
4.577760794803209521e-01
4.497516239969430729e-01
4.497516239969430729e-01
4.497516239969430729e-01
4.512800917080626584e-01
4.512800917080626584e-01
4.455483377913641574e-01
4.455483377913641574e-01
4.455483377913641574e-01
4.447841039358043647e-01
4.447841039358043647e-01
4.581581964081009040e-01
4.581581964081009040e-01
4.581581964081009040e-01
4.489873901413832802e-01
4.489873901413832802e-01
4.325563622468475145e-01
4.325563622468475145e-01
4.325563622468475145e-01
4.348490638135269482e-01
4.348490638135269482e-01
4.348490638135269482e-01
4.348490638135269482e-01
4.348490638135269482e-01
4.314100114635078254e-01
4.314100114635078254e-01
4.218570882690103052e-01
4.218570882690103052e-01
4.218570882690103052e-01
4.184180359189912379e-01
4.184180359189912379e-01
4.314100114635078254e-01
4.314100114635078254e-01
4.314100114635078254e-01
4.100114635078334069e-01
4.100114635078334069e-01
4.283530760412686544e-01
4.283530760412686544e-01
4.283530760412686544e-01
4.237676729079098426e-01
4.237676729079098426e-01
4.100114635078334069e-01
4.100114635078334069e-01
4.100114635078334069e-01
3.935804356132976967e-01
3.935804356132976967e-01
3.874665647688192438e-01
3.874665647688192438e-01
3.874665647688192438e-01
4.058081773022544914e-01
4.058081773022544914e-01
3.874665647688192438e-01
3.874665647688192438e-01
3.874665647688192438e-01
3.981658387466564530e-01
3.981658387466564530e-01
3.905235001910584702e-01
3.905235001910584702e-01
3.905235001910584702e-01
3.767672907909820346e-01
3.767672907909820346e-01
3.733282384409629118e-01
3.733282384409629118e-01
3.733282384409629118e-01
3.565150936186473052e-01
3.565150936186473052e-01
3.729461215131830154e-01
3.729461215131830154e-01
3.729461215131830154e-01
3.565150936186473052e-01
3.565150936186473052e-01
3.450515857852503032e-01
3.450515857852503032e-01
3.450515857852503032e-01
3.354986625907527831e-01
3.354986625907527831e-01
3.374092472296522649e-01
3.374092472296522649e-01
3.374092472296522649e-01
3.278563240351547448e-01
3.278563240351547448e-01
3.381734810852120576e-01
3.381734810852120576e-01
3.381734810852120576e-01
3.328238440962934530e-01
3.328238440962934530e-01
3.087504776461597045e-01
3.087504776461597045e-01
3.087504776461597045e-01
3.030187237294612035e-01
3.030187237294612035e-01
3.137179977072984127e-01
3.137179977072984127e-01
3.137179977072984127e-01
3.091325945739396008e-01
3.091325945739396008e-01
2.911730989682843052e-01
2.911730989682843052e-01
2.911730989682843052e-01
2.911730989682843052e-01
2.911730989682843052e-01
2.766526557126480768e-01
2.766526557126480768e-01
2.766526557126480768e-01
2.724493695070691612e-01
2.724493695070691612e-01
2.877340466182651824e-01
2.877340466182651824e-01
2.877340466182651824e-01
2.831486434849063705e-01
2.831486434849063705e-01
2.762705387848681804e-01
2.762705387848681804e-01
2.762705387848681804e-01
2.606037447458922629e-01
2.606037447458922629e-01
2.758884218570882840e-01
2.758884218570882840e-01
2.758884218570882840e-01
2.506687046236148464e-01
2.506687046236148464e-01
2.651891478792510748e-01
2.651891478792510748e-01
2.651891478792510748e-01
2.678639663737103493e-01
2.678639663737103493e-01
2.544898739014138100e-01
2.544898739014138100e-01
2.544898739014138100e-01
2.392051967902178167e-01
2.392051967902178167e-01
2.460833014902560067e-01
2.460833014902560067e-01
2.460833014902560067e-01
2.499044707680550259e-01
2.499044707680550259e-01
2.342376767290791084e-01
2.342376767290791084e-01
2.342376767290791084e-01
2.369124952235384107e-01
2.369124952235384107e-01
2.369124952235384107e-01
2.369124952235384107e-01
2.369124952235384107e-01
2.296522735957202965e-01
2.296522735957202965e-01
2.330913259457393916e-01
2.330913259457393916e-01
2.330913259457393916e-01
2.166602980512036813e-01
2.166602980512036813e-01
2.338555598012991843e-01
2.338555598012991843e-01
2.338555598012991843e-01
2.181887657623232668e-01
2.181887657623232668e-01
2.197172334734428800e-01
2.197172334734428800e-01
2.197172334734428800e-01
2.239205196790217678e-01
2.239205196790217678e-01
2.292701566679404002e-01
2.292701566679404002e-01
2.292701566679404002e-01
2.101643102789453599e-01
2.101643102789453599e-01
2.051967902178066516e-01
2.051967902178066516e-01
2.051967902178066516e-01
2.243026366068016919e-01
2.243026366068016919e-01
2.029040886511272457e-01
2.029040886511272457e-01
2.185708826901031632e-01
2.185708826901031632e-01
2.185708826901031632e-01
2.017577378677875566e-01
2.017577378677875566e-01
2.048146732900267553e-01
2.048146732900267553e-01
2.048146732900267553e-01
1.952617500955292351e-01
1.952617500955292351e-01
1.964081008788689242e-01
1.964081008788689242e-01
1.964081008788689242e-01
2.090179594956056430e-01
2.090179594956056430e-01
1.979365685899885374e-01
1.979365685899885374e-01
1.979365685899885374e-01
2.067252579289262648e-01
2.067252579289262648e-01
2.067252579289262648e-01
2.067252579289262648e-01
2.067252579289262648e-01
1.887657623232709136e-01
1.887657623232709136e-01
2.082537256400458503e-01
2.082537256400458503e-01
2.082537256400458503e-01
2.074894917844860576e-01
2.074894917844860576e-01
1.849445930454719222e-01
1.849445930454719222e-01
1.849445930454719222e-01
1.960259839510890278e-01
1.960259839510890278e-01
1.876194115399312246e-01
1.876194115399312246e-01
1.876194115399312246e-01
2.013756209400076325e-01
2.013756209400076325e-01
1.914405808177302160e-01
1.914405808177302160e-01
1.914405808177302160e-01
1.956438670233091315e-01
1.956438670233091315e-01
1.956438670233091315e-01
1.956438670233091315e-01
1.956438670233091315e-01
1.944975162399694424e-01
1.944975162399694424e-01
1.799770729843332140e-01
1.799770729843332140e-01
1.799770729843332140e-01
1.730989682842949962e-01
1.730989682842949962e-01
1.868551776843714041e-01
1.868551776843714041e-01
1.868551776843714041e-01
1.784486052732136008e-01
1.784486052732136008e-01
1.761559037065341948e-01
1.761559037065341948e-01
1.761559037065341948e-01
1.696599159342759011e-01
1.696599159342759011e-01
1.669850974398165711e-01
1.669850974398165711e-01
1.669850974398165711e-01
1.849445930454719222e-01
1.849445930454719222e-01
1.834161253343523090e-01
1.834161253343523090e-01
1.834161253343523090e-01
1.776843714176538080e-01
1.776843714176538080e-01
1.581964081008788714e-01
1.581964081008788714e-01
1.581964081008788714e-01
1.639281620175773724e-01
1.639281620175773724e-01
1.559037065341994654e-01
1.559037065341994654e-01
1.559037065341994654e-01
1.505540695452808608e-01
1.505540695452808608e-01
1.673672143675964952e-01
1.673672143675964952e-01
1.673672143675964952e-01
1.723347344287352034e-01
1.723347344287352034e-01
1.494077187619411440e-01
1.494077187619411440e-01
1.494077187619411440e-01
1.436759648452426430e-01
1.436759648452426430e-01
1.597248758119984846e-01
1.597248758119984846e-01
1.597248758119984846e-01
1.627818112342376833e-01
1.627818112342376833e-01
1.413832632785632371e-01
1.413832632785632371e-01
1.413832632785632371e-01
1.432938479174627466e-01
1.432938479174627466e-01
1.352693924340848397e-01
1.352693924340848397e-01
1.352693924340848397e-01
1.337409247229652265e-01
1.337409247229652265e-01
1.452044325563622562e-01
1.452044325563622562e-01
1.452044325563622562e-01
1.490256018341612476e-01
1.490256018341612476e-01
1.444401987008024357e-01
1.444401987008024357e-01
1.444401987008024357e-01
1.501719526175009645e-01
1.501719526175009645e-01
1.367978601452044252e-01
1.367978601452044252e-01
1.367978601452044252e-01
1.402369124952235480e-01
1.402369124952235480e-01
1.211310661062285077e-01
1.211310661062285077e-01
1.211310661062285077e-01
1.318303400840657169e-01
1.318303400840657169e-01
1.226595338173481070e-01
1.226595338173481070e-01
1.226595338173481070e-01
1.176920137562093988e-01
1.176920137562093988e-01
1.306839893007260278e-01
1.306839893007260278e-01
1.306839893007260278e-01
1.325945739396255374e-01
1.325945739396255374e-01
1.169277799006495921e-01
1.169277799006495921e-01
1.169277799006495921e-01
1.096675582728314918e-01
1.096675582728314918e-01
1.249522353840275130e-01
1.249522353840275130e-01
1.249522353840275130e-01
1.211310661062285077e-01
1.211310661062285077e-01
1.085212074894917889e-01
1.085212074894917889e-01
1.085212074894917889e-01
1.234237676729079136e-01
1.234237676729079136e-01
1.230416507451280034e-01
1.230416507451280034e-01
1.230416507451280034e-01
1.180741306839892951e-01
1.180741306839892951e-01
9.896828429499426871e-02
9.896828429499426871e-02
9.896828429499426871e-02
1.027894535727932740e-01
1.027894535727932740e-01
9.361864730607566409e-02
9.361864730607566409e-02
9.361864730607566409e-02
9.361864730607566409e-02
9.361864730607566409e-02
9.017959495605655518e-02
9.017959495605655518e-02
9.017959495605655518e-02
9.705769965609475913e-02
9.705769965609475913e-02
1.108139090561711948e-01
1.108139090561711948e-01
1.108139090561711948e-01
1.081390905617118786e-01
1.081390905617118786e-01
9.132594573939625815e-02
9.132594573939625815e-02
9.132594573939625815e-02
9.782193351165456574e-02
9.782193351165456574e-02
1.054642720672525763e-01
1.054642720672525763e-01
1.054642720672525763e-01
1.043179212839128733e-01
1.043179212839128733e-01
9.858616736721437235e-02
9.858616736721437235e-02
9.858616736721437235e-02
9.667558272831486277e-02
9.667558272831486277e-02
8.635842567825754990e-02
8.635842567825754990e-02
8.635842567825754990e-02
9.935040122277416508e-02
9.935040122277416508e-02
8.941536110049674857e-02
8.941536110049674857e-02
8.941536110049674857e-02
7.833397019487962909e-02
7.833397019487962909e-02
9.514711501719526343e-02
9.514711501719526343e-02
9.132594573939625815e-02
9.132594573939625815e-02
9.132594573939625815e-02
9.667558272831486277e-02
9.667558272831486277e-02
9.667558272831486277e-02
9.667558272831486277e-02
9.667558272831486277e-02
7.948032097821933206e-02
7.948032097821933206e-02
7.604126862820022315e-02
7.604126862820022315e-02
7.604126862820022315e-02
7.718761941153992612e-02
7.718761941153992612e-02
8.024455483377913867e-02
8.024455483377913867e-02
8.024455483377913867e-02
7.451280091708062381e-02
7.451280091708062381e-02
9.476499808941536707e-02
9.476499808941536707e-02
9.476499808941536707e-02
8.674054260603744626e-02
8.674054260603744626e-02
9.323653037829575385e-02
9.323653037829575385e-02
9.323653037829575385e-02
7.030951471150172216e-02
7.030951471150172216e-02
9.056171188383645154e-02
9.056171188383645154e-02
9.056171188383645154e-02
6.687046236148261324e-02
6.687046236148261324e-02
9.132594573939625815e-02
9.132594573939625815e-02
9.132594573939625815e-02
6.801681314482231622e-02
6.801681314482231622e-02
6.801681314482231622e-02
6.801681314482231622e-02
6.801681314482231622e-02
8.139090561711884164e-02
8.139090561711884164e-02
8.903324417271685220e-02
8.903324417271685220e-02
8.903324417271685220e-02
8.788689338937714923e-02
8.788689338937714923e-02
7.986243790599924230e-02
7.986243790599924230e-02
7.986243790599924230e-02
8.865112724493695584e-02
8.865112724493695584e-02
8.903324417271685220e-02
8.903324417271685220e-02
8.903324417271685220e-02
8.139090561711884164e-02
8.139090561711884164e-02
6.266717615590371160e-02
6.266717615590371160e-02
6.266717615590371160e-02
7.680550248376002975e-02
7.680550248376002975e-02
7.107374856706151489e-02
7.107374856706151489e-02
7.107374856706151489e-02
6.534199465036301391e-02
6.534199465036301391e-02
6.304929308368360796e-02
6.304929308368360796e-02
6.304929308368360796e-02
6.266717615590371160e-02
6.266717615590371160e-02
5.846388995032479607e-02
5.846388995032479607e-02
5.846388995032479607e-02
6.075659151700420202e-02
6.075659151700420202e-02
5.693542223920519674e-02
5.693542223920519674e-02
5.693542223920519674e-02
6.992739778372182580e-02
6.992739778372182580e-02
6.725257928926250961e-02
6.725257928926250961e-02
6.725257928926250961e-02
7.986243790599924230e-02
7.986243790599924230e-02
8.100878868933893140e-02
8.100878868933893140e-02
8.100878868933893140e-02
8.100878868933893140e-02
8.100878868933893140e-02
5.655330531142529343e-02
5.655330531142529343e-02
5.655330531142529343e-02
6.495987772258310367e-02
6.495987772258310367e-02
5.999235766144440235e-02
5.999235766144440235e-02
5.999235766144440235e-02
7.451280091708062381e-02
7.451280091708062381e-02
6.572411157814291027e-02
6.572411157814291027e-02
6.572411157814291027e-02
7.374856706152083108e-02
7.374856706152083108e-02
6.495987772258310367e-02
6.495987772258310367e-02
6.495987772258310367e-02
6.228505922812380829e-02
6.228505922812380829e-02
7.718761941153992612e-02
7.718761941153992612e-02
7.718761941153992612e-02
7.298433320596102447e-02
7.298433320596102447e-02
5.311425296140619146e-02
5.311425296140619146e-02
5.311425296140619146e-02
6.343141001146350433e-02
6.343141001146350433e-02
5.464272067252579079e-02
5.464272067252579079e-02
5.464272067252579079e-02
7.030951471150172216e-02
7.030951471150172216e-02
6.304929308368360796e-02
6.304929308368360796e-02
6.304929308368360796e-02
4.776461597248757990e-02
4.776461597248757990e-02
7.107374856706151489e-02
7.107374856706151489e-02
7.107374856706151489e-02
5.273213603362628815e-02
5.273213603362628815e-02
7.604126862820022315e-02
7.604126862820022315e-02
7.604126862820022315e-02
7.604126862820022315e-02
7.604126862820022315e-02
5.769965609476499641e-02
5.769965609476499641e-02
5.769965609476499641e-02
7.336645013374092084e-02
7.336645013374092084e-02
8.291937332823844098e-02
8.291937332823844098e-02
8.291937332823844098e-02
6.801681314482231622e-02
6.801681314482231622e-02
9.400076423385556046e-02
9.400076423385556046e-02
9.400076423385556046e-02
8.788689338937714923e-02
8.788689338937714923e-02
8.482995796713795056e-02
8.482995796713795056e-02
8.482995796713795056e-02
1.169277799006495921e-01
1.169277799006495921e-01
1.196025983951089083e-01
1.196025983951089083e-01
1.196025983951089083e-01
1.146350783339702001e-01
1.146350783339702001e-01
1.413832632785632371e-01
1.413832632785632371e-01
1.413832632785632371e-01
1.436759648452426430e-01
1.436759648452426430e-01
1.562858234619793618e-01
1.562858234619793618e-01
1.562858234619793618e-01
1.547573557508597764e-01
1.547573557508597764e-01
1.738632021398547889e-01
1.738632021398547889e-01
1.738632021398547889e-01
1.971723347344287447e-01
1.971723347344287447e-01
2.166602980512036813e-01
2.166602980512036813e-01
2.166602980512036813e-01
2.334734428735192879e-01
2.334734428735192879e-01
2.281238058846006833e-01
2.281238058846006833e-01
2.281238058846006833e-01
2.621322124570118484e-01
2.621322124570118484e-01
2.816201757737867850e-01
2.816201757737867850e-01
2.816201757737867850e-01
2.942300343905234761e-01
2.942300343905234761e-01
3.068398930072602226e-01
3.068398930072602226e-01
2.988154375238822880e-01
2.988154375238822880e-01
2.988154375238822880e-01
3.347344287351929903e-01
3.347344287351929903e-01
3.309132594573939712e-01
3.309132594573939712e-01
3.309132594573939712e-01
3.675964845242644108e-01
3.675964845242644108e-01
3.591899121131066352e-01
3.591899121131066352e-01
3.591899121131066352e-01
3.668322506687046181e-01
3.668322506687046181e-01
3.763851738632021382e-01
3.763851738632021382e-01
3.763851738632021382e-01
4.130683989300725778e-01
4.130683989300725778e-01
4.161253343523118042e-01
4.161253343523118042e-01
4.161253343523118042e-01
4.268246083301490135e-01
4.268246083301490135e-01
4.157432174245319079e-01
4.157432174245319079e-01
4.157432174245319079e-01
4.482231562858234875e-01
4.482231562858234875e-01
4.501337409247229693e-01
4.501337409247229693e-01
4.501337409247229693e-01
4.615972487581199712e-01
4.615972487581199712e-01
4.570118456247611594e-01
4.570118456247611594e-01
4.570118456247611594e-01
4.742071073748567178e-01
4.742071073748567178e-01
4.669468857470385759e-01
4.669468857470385759e-01
4.669468857470385759e-01
4.635078333970195086e-01
4.635078333970195086e-01
4.703859380970576987e-01
4.703859380970576987e-01
4.703859380970576987e-01
4.707680550248375950e-01
4.707680550248375950e-01
4.948414214749713436e-01
4.948414214749713436e-01
4.948414214749713436e-01
4.929308368360718617e-01
4.929308368360718617e-01
4.753534581581964069e-01
4.753534581581964069e-01
4.753534581581964069e-01
4.864348490638135125e-01
4.864348490638135125e-01
4.852884982804738234e-01
4.852884982804738234e-01
4.852884982804738234e-01
4.829957967137944452e-01
4.829957967137944452e-01
5.024837600305693819e-01
5.024837600305693819e-01
5.024837600305693819e-01
5.070691631639281383e-01
5.070691631639281383e-01
4.883454337027130499e-01
4.883454337027130499e-01
4.883454337027130499e-01
4.978983568972105700e-01
4.978983568972105700e-01
4.871990829193733052e-01
4.871990829193733052e-01
4.871990829193733052e-01
5.005731753916699001e-01
5.005731753916699001e-01
5.063049293083683455e-01
5.063049293083683455e-01
5.063049293083683455e-01
4.910202521971723244e-01
4.910202521971723244e-01
5.063049293083683455e-01
5.063049293083683455e-01
5.063049293083683455e-01
5.032479938861291746e-01
5.032479938861291746e-01
4.860527321360336162e-01
4.860527321360336162e-01
4.860527321360336162e-01
4.952235384027512399e-01
4.952235384027512399e-01
4.829957967137944452e-01
4.829957967137944452e-01
4.829957967137944452e-01
4.829957967137944452e-01
4.829957967137944452e-01
4.933129537638517581e-01
4.933129537638517581e-01
4.933129537638517581e-01
5.001910584638900037e-01
5.001910584638900037e-01
4.887275506304929462e-01
4.887275506304929462e-01
4.887275506304929462e-01
4.807030951471150115e-01
4.807030951471150115e-01
4.948414214749713436e-01
4.948414214749713436e-01
4.948414214749713436e-01
4.757355750859763033e-01
4.757355750859763033e-01
4.852884982804738234e-01
4.852884982804738234e-01
4.852884982804738234e-01
4.860527321360336162e-01
4.860527321360336162e-01
4.753534581581964069e-01
4.753534581581964069e-01
4.753534581581964069e-01
4.688574703859381132e-01
4.688574703859381132e-01
