5.961024073366449905e-01
5.949560565533053014e-01
5.949560565533053014e-01
5.857852502865876776e-01
5.857852502865876776e-01
5.857852502865876776e-01
5.911348872755063377e-01
5.911348872755063377e-01
5.823461979365686103e-01
5.823461979365686103e-01
5.823461979365686103e-01
5.777607948032097429e-01
5.777607948032097429e-01
5.762323270920901574e-01
5.762323270920901574e-01
5.762323270920901574e-01
5.693542223920520229e-01
5.693542223920520229e-01
5.708826901031716083e-01
5.708826901031716083e-01
5.708826901031716083e-01
5.689721054642720155e-01
5.689721054642720155e-01
5.624761176920137773e-01
5.624761176920137773e-01
5.624761176920137773e-01
5.613297669086740882e-01
5.613297669086740882e-01
5.544516622086358426e-01
5.544516622086358426e-01
5.536874283530760499e-01
5.536874283530760499e-01
5.536874283530760499e-01
5.468093236530378043e-01
5.468093236530378043e-01
5.437523882307986334e-01
5.437523882307986334e-01
5.437523882307986334e-01
5.513947267863966717e-01
5.513947267863966717e-01
5.456629728696981152e-01
5.456629728696981152e-01
5.456629728696981152e-01
5.349636988918609060e-01
5.349636988918609060e-01
5.361100496752005951e-01
5.361100496752005951e-01
5.361100496752005951e-01
5.280855941918226604e-01
5.280855941918226604e-01
5.280855941918226604e-01
5.280855941918226604e-01
5.280855941918226604e-01
5.196790217806648293e-01
5.196790217806648293e-01
5.212074894917845258e-01
5.212074894917845258e-01
5.212074894917845258e-01
5.170042032862055548e-01
5.170042032862055548e-01
5.192969048528849330e-01
5.192969048528849330e-01
5.192969048528849330e-01
5.097439816583874128e-01
5.097439816583874128e-01
5.066870462361482419e-01
5.066870462361482419e-01
5.066870462361482419e-01
5.082155139472678274e-01
5.082155139472678274e-01
5.082155139472678274e-01
5.082155139472678274e-01
5.082155139472678274e-01
4.940771876194115508e-01
4.940771876194115508e-01
4.963698891860909290e-01
4.963698891860909290e-01
4.963698891860909290e-01
4.933129537638517581e-01
4.933129537638517581e-01
4.956056553305311363e-01
4.956056553305311363e-01
4.956056553305311363e-01
4.860527321360336162e-01
4.860527321360336162e-01
4.814673290026748043e-01
4.814673290026748043e-01
4.814673290026748043e-01
4.776461597248757851e-01
4.776461597248757851e-01
4.814673290026748043e-01
4.814673290026748043e-01
4.814673290026748043e-01
4.726786396637370768e-01
4.726786396637370768e-01
4.753534581581964069e-01
4.753534581581964069e-01
4.753534581581964069e-01
4.700038211692778023e-01
4.700038211692778023e-01
4.700038211692778023e-01
4.700038211692778023e-01
4.700038211692778023e-01
4.596866641192204894e-01
4.596866641192204894e-01
4.589224302636606967e-01
4.589224302636606967e-01
4.589224302636606967e-01
4.654184180359189904e-01
4.654184180359189904e-01
4.593045471914405931e-01
4.593045471914405931e-01
4.593045471914405931e-01
4.558654948414214703e-01
4.558654948414214703e-01
4.520443255636224511e-01
4.520443255636224511e-01
4.520443255636224511e-01
4.551012609858616775e-01
4.551012609858616775e-01
4.493695070691631765e-01
4.493695070691631765e-01
4.493695070691631765e-01
4.497516239969430729e-01
4.497516239969430729e-01
4.444019870080244683e-01
4.444019870080244683e-01
4.444019870080244683e-01
4.493695070691631765e-01
4.493695070691631765e-01
4.417271685135651382e-01
4.417271685135651382e-01
4.417271685135651382e-01
4.444019870080244683e-01
4.444019870080244683e-01
4.337027130301872591e-01
4.337027130301872591e-01
4.337027130301872591e-01
4.333205961024073627e-01
4.333205961024073627e-01
4.333205961024073627e-01
4.333205961024073627e-01
4.333205961024073627e-01
4.314100114635078254e-01
4.314100114635078254e-01
4.321742453190676181e-01
4.321742453190676181e-01
4.321742453190676181e-01
4.287351929690485508e-01
4.287351929690485508e-01
4.321742453190676181e-01
4.321742453190676181e-01
4.321742453190676181e-01
4.191822697745510307e-01
4.191822697745510307e-01
4.165074512800917006e-01
4.165074512800917006e-01
4.165074512800917006e-01
4.176538020634313897e-01
4.176538020634313897e-01
4.188001528467711343e-01
4.188001528467711343e-01
4.188001528467711343e-01
4.119220481467328887e-01
4.119220481467328887e-01
4.092472296522736142e-01
4.092472296522736142e-01
4.092472296522736142e-01
4.207107374856706161e-01
4.207107374856706161e-01
4.084829957967138214e-01
4.084829957967138214e-01
4.084829957967138214e-01
4.042797095911349059e-01
4.042797095911349059e-01
4.176538020634313897e-01
4.176538020634313897e-01
4.176538020634313897e-01
4.073366450133740768e-01
4.073366450133740768e-01
4.000764233855559904e-01
4.000764233855559904e-01
4.000764233855559904e-01
3.981658387466564530e-01
3.981658387466564530e-01
3.989300726022163013e-01
3.989300726022163013e-01
3.989300726022163013e-01
3.928162017577378484e-01
3.928162017577378484e-01
3.974016048910966603e-01
3.974016048910966603e-01
3.974016048910966603e-01
3.931983186855177448e-01
3.931983186855177448e-01
3.939625525410775930e-01
3.939625525410775930e-01
3.939625525410775930e-01
3.889950324799388848e-01
3.889950324799388848e-01
3.935804356132976967e-01
3.935804356132976967e-01
3.935804356132976967e-01
3.912877340466182630e-01
3.912877340466182630e-01
3.893771494077187811e-01
3.893771494077187811e-01
3.893771494077187811e-01
3.824990447076805355e-01
3.824990447076805355e-01
3.851738632021398656e-01
3.851738632021398656e-01
3.851738632021398656e-01
3.828811616354604319e-01
3.828811616354604319e-01
3.802063431410011574e-01
3.802063431410011574e-01
3.802063431410011574e-01
3.870844478410393474e-01
3.870844478410393474e-01
3.756209400076423455e-01
3.756209400076423455e-01
3.756209400076423455e-01
3.748567061520825527e-01
3.748567061520825527e-01
3.775315246465418273e-01
3.775315246465418273e-01
3.775315246465418273e-01
3.832632785632403283e-01
3.832632785632403283e-01
3.733282384409629118e-01
3.733282384409629118e-01
3.649216660298051362e-01
3.649216660298051362e-01
3.649216660298051362e-01
3.721818876576232227e-01
3.721818876576232227e-01
3.633931983186854953e-01
3.633931983186854953e-01
3.633931983186854953e-01
3.618647306075659098e-01
3.618647306075659098e-01
3.664501337409247217e-01
3.664501337409247217e-01
3.664501337409247217e-01
3.611004967520061171e-01
3.611004967520061171e-01
3.519296904852884933e-01
3.519296904852884933e-01
3.519296904852884933e-01
3.660680168131448253e-01
3.660680168131448253e-01
3.603362628964463243e-01
3.603362628964463243e-01
3.603362628964463243e-01
3.538402751241879751e-01
3.538402751241879751e-01
3.561329766908674088e-01
3.561329766908674088e-01
3.561329766908674088e-01
3.591899121131066352e-01
3.591899121131066352e-01
3.538402751241879751e-01
3.538402751241879751e-01
3.538402751241879751e-01
3.549866259075277197e-01
3.549866259075277197e-01
3.458158196408100959e-01
3.458158196408100959e-01
3.458158196408100959e-01
3.538402751241879751e-01
3.538402751241879751e-01
3.416125334352311804e-01
3.416125334352311804e-01
3.416125334352311804e-01
3.523118074130683897e-01
3.523118074130683897e-01
3.488727550630492669e-01
3.488727550630492669e-01
3.488727550630492669e-01
3.465800534963698887e-01
3.465800534963698887e-01
3.408482995796713877e-01
3.408482995796713877e-01
3.408482995796713877e-01
3.385555980129919540e-01
3.385555980129919540e-01
3.385555980129919540e-01
3.385555980129919540e-01
3.385555980129919540e-01
3.427588842185708695e-01
3.427588842185708695e-01
3.358807795185326794e-01
3.358807795185326794e-01
3.358807795185326794e-01
3.416125334352311804e-01
3.416125334352311804e-01
3.328238440962934530e-01
3.328238440962934530e-01
3.328238440962934530e-01
3.389377149407718504e-01
3.389377149407718504e-01
3.381734810852120576e-01
3.381734810852120576e-01
3.381734810852120576e-01
3.335880779518532457e-01
3.335880779518532457e-01
3.290026748184944339e-01
3.290026748184944339e-01
3.290026748184944339e-01
3.343523118074130940e-01
3.343523118074130940e-01
3.305311425296140748e-01
3.305311425296140748e-01
3.305311425296140748e-01
3.259457393962552629e-01
3.259457393962552629e-01
3.335880779518532457e-01
3.335880779518532457e-01
3.335880779518532457e-01
3.301490256018341785e-01
3.301490256018341785e-01
3.351165456629728867e-01
3.351165456629728867e-01
3.351165456629728867e-01
3.339701948796331421e-01
3.339701948796331421e-01
3.263278563240351593e-01
3.263278563240351593e-01
3.263278563240351593e-01
3.282384409629346411e-01
3.282384409629346411e-01
3.374092472296522649e-01
3.374092472296522649e-01
3.374092472296522649e-01
3.282384409629346411e-01
3.282384409629346411e-01
3.389377149407718504e-01
3.389377149407718504e-01
3.389377149407718504e-01
3.332059610240733494e-01
3.332059610240733494e-01
3.270920901795949520e-01
3.270920901795949520e-01
3.270920901795949520e-01
3.354986625907527831e-01
3.354986625907527831e-01
3.332059610240733494e-01
3.332059610240733494e-01
3.332059610240733494e-01
3.412304165074512841e-01
3.412304165074512841e-01
3.385555980129919540e-01
3.385555980129919540e-01
3.385555980129919540e-01
3.343523118074130940e-01
3.343523118074130940e-01
3.328238440962934530e-01
3.328238440962934530e-01
3.328238440962934530e-01
3.412304165074512841e-01
3.412304165074512841e-01
3.404661826518914913e-01
3.404661826518914913e-01
3.404661826518914913e-01
3.454337027130301996e-01
3.454337027130301996e-01
3.404661826518914913e-01
3.404661826518914913e-01
3.404661826518914913e-01
3.515475735575085969e-01
3.515475735575085969e-01
3.412304165074512841e-01
3.412304165074512841e-01
3.412304165074512841e-01
3.523118074130683897e-01
3.523118074130683897e-01
3.557508597630875125e-01
3.557508597630875125e-01
3.557508597630875125e-01
3.504012227741689078e-01
3.504012227741689078e-01
3.507833397019488042e-01
3.507833397019488042e-01
3.507833397019488042e-01
3.442873519296905105e-01
3.442873519296905105e-01
3.588077951853266834e-01
3.588077951853266834e-01
3.588077951853266834e-01
3.542223920519679270e-01
3.542223920519679270e-01
3.591899121131066352e-01
3.591899121131066352e-01
3.591899121131066352e-01
3.549866259075277197e-01
3.549866259075277197e-01
3.526939243408482860e-01
3.526939243408482860e-01
3.526939243408482860e-01
3.584256782575467870e-01
3.584256782575467870e-01
3.584256782575467870e-01
3.584256782575467870e-01
3.584256782575467870e-01
3.584256782575467870e-01
3.584256782575467870e-01
3.637753152464653916e-01
3.637753152464653916e-01
3.637753152464653916e-01
3.626289644631257025e-01
3.626289644631257025e-01
3.561329766908674088e-01
3.561329766908674088e-01
3.561329766908674088e-01
3.626289644631257025e-01
3.626289644631257025e-01
3.599541459686664280e-01
3.599541459686664280e-01
3.599541459686664280e-01
3.679786014520443072e-01
3.679786014520443072e-01
3.591899121131066352e-01
3.591899121131066352e-01
3.591899121131066352e-01
3.572793274742070979e-01
3.572793274742070979e-01
3.591899121131066352e-01
3.591899121131066352e-01
3.591899121131066352e-01
3.660680168131448253e-01
3.660680168131448253e-01
3.591899121131066352e-01
3.591899121131066352e-01
3.614826136797860134e-01
3.614826136797860134e-01
3.614826136797860134e-01
3.572793274742070979e-01
3.572793274742070979e-01
3.595720290408865316e-01
3.595720290408865316e-01
3.595720290408865316e-01
3.706534199465036372e-01
3.706534199465036372e-01
3.672143675964845144e-01
3.672143675964845144e-01
3.672143675964845144e-01
3.591899121131066352e-01
3.591899121131066352e-01
3.584256782575467870e-01
3.584256782575467870e-01
3.584256782575467870e-01
3.622468475353458062e-01
3.622468475353458062e-01
3.626289644631257025e-01
3.626289644631257025e-01
3.626289644631257025e-01
3.695070691631639481e-01
3.695070691631639481e-01
3.691249522353840518e-01
3.691249522353840518e-01
3.691249522353840518e-01
3.584256782575467870e-01
3.584256782575467870e-01
3.687428353076040999e-01
3.687428353076040999e-01
3.687428353076040999e-01
3.626289644631257025e-01
3.626289644631257025e-01
3.549866259075277197e-01
3.549866259075277197e-01
3.549866259075277197e-01
3.706534199465036372e-01
3.706534199465036372e-01
3.695070691631639481e-01
3.695070691631639481e-01
3.695070691631639481e-01
3.599541459686664280e-01
3.599541459686664280e-01
3.599541459686664280e-01
3.599541459686664280e-01
3.599541459686664280e-01
3.584256782575467870e-01
3.584256782575467870e-01
3.637753152464653916e-01
3.637753152464653916e-01
3.637753152464653916e-01
3.572793274742070979e-01
3.572793274742070979e-01
3.576614444019869943e-01
3.576614444019869943e-01
3.576614444019869943e-01
3.591899121131066352e-01
3.591899121131066352e-01
3.580435613297668906e-01
3.580435613297668906e-01
3.580435613297668906e-01
3.576614444019869943e-01
3.576614444019869943e-01
3.542223920519679270e-01
3.542223920519679270e-01
3.542223920519679270e-01
3.611004967520061171e-01
3.611004967520061171e-01
3.519296904852884933e-01
3.519296904852884933e-01
3.519296904852884933e-01
3.656858998853649290e-01
3.656858998853649290e-01
3.614826136797860134e-01
3.614826136797860134e-01
3.614826136797860134e-01
3.557508597630875125e-01
3.557508597630875125e-01
3.568972105464272015e-01
3.568972105464272015e-01
3.568972105464272015e-01
3.576614444019869943e-01
3.576614444019869943e-01
3.546045089797478234e-01
3.546045089797478234e-01
3.546045089797478234e-01
3.588077951853266834e-01
3.588077951853266834e-01
3.622468475353458062e-01
3.622468475353458062e-01
3.622468475353458062e-01
3.538402751241879751e-01
3.538402751241879751e-01
3.500191058463890115e-01
3.500191058463890115e-01
3.500191058463890115e-01
3.553687428353076161e-01
3.553687428353076161e-01
3.549866259075277197e-01
3.549866259075277197e-01
3.549866259075277197e-01
3.538402751241879751e-01
3.538402751241879751e-01
3.565150936186473052e-01
3.565150936186473052e-01
3.565150936186473052e-01
3.546045089797478234e-01
3.546045089797478234e-01
3.549866259075277197e-01
3.549866259075277197e-01
3.549866259075277197e-01
3.519296904852884933e-01
3.519296904852884933e-01
3.492548719908292187e-01
3.492548719908292187e-01
3.492548719908292187e-01
3.542223920519679270e-01
3.542223920519679270e-01
3.507833397019488042e-01
3.507833397019488042e-01
3.507833397019488042e-01
3.496369889186091151e-01
3.496369889186091151e-01
3.511654566297287006e-01
3.511654566297287006e-01
3.511654566297287006e-01
3.481085212074894741e-01
3.481085212074894741e-01
3.515475735575085969e-01
3.515475735575085969e-01
3.515475735575085969e-01
3.568972105464272015e-01
3.568972105464272015e-01
3.412304165074512841e-01
3.412304165074512841e-01
3.412304165074512841e-01
3.450515857852503032e-01
3.450515857852503032e-01
3.477264042797095778e-01
3.477264042797095778e-01
3.477264042797095778e-01
3.397019487963316986e-01
3.397019487963316986e-01
3.385555980129919540e-01
3.385555980129919540e-01
3.385555980129919540e-01
3.477264042797095778e-01
3.477264042797095778e-01
3.458158196408100959e-01
3.458158196408100959e-01
3.458158196408100959e-01
3.400840657241115950e-01
3.400840657241115950e-01
3.404661826518914913e-01
3.404661826518914913e-01
3.404661826518914913e-01
3.324417271685135566e-01
3.324417271685135566e-01
3.351165456629728867e-01
3.351165456629728867e-01
3.351165456629728867e-01
3.247993886129155738e-01
3.247993886129155738e-01
3.385555980129919540e-01
3.385555980129919540e-01
3.385555980129919540e-01
3.255636224684753666e-01
3.255636224684753666e-01
3.305311425296140748e-01
3.305311425296140748e-01
3.305311425296140748e-01
3.225066870462361401e-01
3.225066870462361401e-01
3.343523118074130940e-01
3.343523118074130940e-01
3.343523118074130940e-01
3.217424531906763474e-01
3.217424531906763474e-01
3.278563240351547448e-01
3.278563240351547448e-01
3.278563240351547448e-01
3.324417271685135566e-01
3.324417271685135566e-01
3.198318685517768656e-01
3.198318685517768656e-01
3.198318685517768656e-01
3.255636224684753666e-01
3.255636224684753666e-01
3.152464654184180537e-01
3.152464654184180537e-01
3.152464654184180537e-01
3.125716469239587236e-01
3.125716469239587236e-01
3.186855177684371210e-01
3.186855177684371210e-01
3.186855177684371210e-01
3.175391669850974319e-01
3.175391669850974319e-01
3.186855177684371210e-01
3.186855177684371210e-01
3.186855177684371210e-01
3.133358807795185164e-01
3.133358807795185164e-01
3.091325945739396008e-01
3.091325945739396008e-01
3.163928162017577428e-01
3.163928162017577428e-01
3.163928162017577428e-01
3.175391669850974319e-01
3.175391669850974319e-01
3.183034008406572246e-01
3.183034008406572246e-01
3.183034008406572246e-01
3.137179977072984127e-01
3.137179977072984127e-01
3.125716469239587236e-01
3.125716469239587236e-01
3.125716469239587236e-01
3.179212839128773282e-01
3.179212839128773282e-01
3.102789453572793454e-01
3.102789453572793454e-01
3.102789453572793454e-01
3.110431792128391382e-01
3.110431792128391382e-01
3.022544898739014108e-01
3.022544898739014108e-01
3.022544898739014108e-01
3.068398930072602226e-01
3.068398930072602226e-01
3.068398930072602226e-01
3.068398930072602226e-01
3.068398930072602226e-01
3.098968284294994491e-01
3.098968284294994491e-01
3.079862437905999117e-01
3.079862437905999117e-01
3.079862437905999117e-01
2.972869698127627025e-01
2.972869698127627025e-01
3.014902560183416180e-01
3.014902560183416180e-01
3.014902560183416180e-01
3.079862437905999117e-01
3.079862437905999117e-01
3.060756591517004299e-01
3.060756591517004299e-01
3.060756591517004299e-01
3.056935422239205336e-01
3.056935422239205336e-01
3.045471914405808445e-01
3.045471914405808445e-01
3.045471914405808445e-01
2.976690867405425989e-01
2.976690867405425989e-01
3.045471914405808445e-01
3.045471914405808445e-01
3.045471914405808445e-01
2.884982804738249751e-01
2.884982804738249751e-01
3.011081390905617217e-01
3.011081390905617217e-01
3.011081390905617217e-01
3.018723729461215144e-01
3.018723729461215144e-01
2.999617883072220326e-01
2.999617883072220326e-01
2.999617883072220326e-01
2.919373328238440979e-01
2.919373328238440979e-01
2.976690867405425989e-01
2.976690867405425989e-01
2.976690867405425989e-01
2.873519296904852860e-01
2.873519296904852860e-01
2.911730989682843052e-01
2.911730989682843052e-01
2.911730989682843052e-01
2.919373328238440979e-01
2.919373328238440979e-01
2.869698127627053896e-01
2.869698127627053896e-01
2.869698127627053896e-01
2.957585021016431170e-01
2.957585021016431170e-01
2.919373328238440979e-01
2.919373328238440979e-01
2.919373328238440979e-01
2.892625143293847678e-01
2.892625143293847678e-01
2.865876958349254933e-01
2.865876958349254933e-01
2.865876958349254933e-01
2.865876958349254933e-01
2.865876958349254933e-01
2.869698127627053896e-01
2.869698127627053896e-01
2.869698127627053896e-01
2.961406190294230134e-01
2.961406190294230134e-01
2.800917080626671996e-01
2.800917080626671996e-01
2.800917080626671996e-01
2.865876958349254933e-01
2.865876958349254933e-01
2.854413450515858042e-01
2.854413450515858042e-01
2.854413450515858042e-01
2.839128773404661632e-01
2.839128773404661632e-01
2.862055789071455969e-01
2.862055789071455969e-01
2.862055789071455969e-01
2.766526557126480768e-01
2.766526557126480768e-01
2.896446312571647197e-01
2.896446312571647197e-01
2.896446312571647197e-01
2.865876958349254933e-01
2.865876958349254933e-01
2.839128773404661632e-01
2.839128773404661632e-01
2.839128773404661632e-01
2.823844096293465777e-01
2.823844096293465777e-01
2.777990064959877659e-01
2.777990064959877659e-01
2.777990064959877659e-01
2.774168895682078695e-01
2.774168895682078695e-01
2.789453572793274549e-01
2.789453572793274549e-01
2.789453572793274549e-01
2.789453572793274549e-01
2.789453572793274549e-01
2.682460833014902457e-01
2.682460833014902457e-01
2.682460833014902457e-01
2.762705387848681804e-01
2.762705387848681804e-01
2.755063049293083877e-01
2.755063049293083877e-01
2.755063049293083877e-01
2.686282002292701421e-01
2.686282002292701421e-01
2.762705387848681804e-01
2.762705387848681804e-01
2.762705387848681804e-01
2.812380588460068886e-01
2.812380588460068886e-01
2.739778372181887467e-01
2.739778372181887467e-01
2.739778372181887467e-01
2.713030187237294721e-01
2.713030187237294721e-01
2.667176155903706603e-01
2.667176155903706603e-01
2.667176155903706603e-01
2.606037447458922629e-01
2.606037447458922629e-01
2.663354986625907639e-01
2.663354986625907639e-01
2.663354986625907639e-01
2.674818494459304530e-01
2.674818494459304530e-01
2.724493695070691612e-01
2.724493695070691612e-01
2.724493695070691612e-01
2.648070309514711229e-01
2.648070309514711229e-01
2.648070309514711229e-01
2.648070309514711229e-01
2.648070309514711229e-01
2.590752770347726219e-01
2.590752770347726219e-01
2.678639663737103493e-01
2.678639663737103493e-01
2.678639663737103493e-01
2.571646923958731401e-01
2.571646923958731401e-01
2.644249140236912266e-01
2.644249140236912266e-01
2.644249140236912266e-01
2.667176155903706603e-01
2.667176155903706603e-01
2.590752770347726219e-01
2.590752770347726219e-01
2.590752770347726219e-01
2.617500955292319520e-01
2.617500955292319520e-01
2.651891478792510748e-01
2.651891478792510748e-01
2.651891478792510748e-01
2.586931601069927256e-01
2.586931601069927256e-01
2.606037447458922629e-01
2.606037447458922629e-01
2.606037447458922629e-01
2.667176155903706603e-01
2.667176155903706603e-01
2.521971723347344319e-01
2.521971723347344319e-01
2.521971723347344319e-01
2.644249140236912266e-01
2.644249140236912266e-01
2.667176155903706603e-01
2.667176155903706603e-01
2.602216278181123665e-01
2.602216278181123665e-01
2.602216278181123665e-01
2.552541077569736583e-01
2.552541077569736583e-01
2.571646923958731401e-01
2.571646923958731401e-01
2.571646923958731401e-01
2.571646923958731401e-01
2.571646923958731401e-01
2.617500955292319520e-01
2.617500955292319520e-01
2.617500955292319520e-01
2.579289262514329328e-01
2.579289262514329328e-01
2.579289262514329328e-01
2.579289262514329328e-01
2.579289262514329328e-01
2.606037447458922629e-01
2.606037447458922629e-01
2.537256400458540173e-01
2.537256400458540173e-01
2.537256400458540173e-01
2.564004585403133474e-01
2.564004585403133474e-01
2.502865876958349500e-01
2.502865876958349500e-01
2.502865876958349500e-01
2.483760030569354127e-01
2.483760030569354127e-01
2.529614061902942246e-01
2.529614061902942246e-01
2.529614061902942246e-01
2.506687046236148464e-01
2.506687046236148464e-01
2.575468093236530365e-01
2.575468093236530365e-01
2.575468093236530365e-01
2.460833014902560067e-01
2.460833014902560067e-01
2.468475353458158272e-01
2.468475353458158272e-01
2.468475353458158272e-01
2.518150554069545355e-01
2.518150554069545355e-01
2.499044707680550259e-01
2.499044707680550259e-01
2.499044707680550259e-01
2.499044707680550259e-01
2.499044707680550259e-01
2.487581199847153091e-01
2.487581199847153091e-01
2.487581199847153091e-01
2.376767290790982035e-01
2.376767290790982035e-01
2.479938861291555163e-01
2.479938861291555163e-01
2.479938861291555163e-01
2.457011845624761104e-01
2.457011845624761104e-01
2.388230798624378926e-01
2.388230798624378926e-01
2.388230798624378926e-01
2.430263660680168081e-01
2.430263660680168081e-01
2.365303782957585144e-01
2.365303782957585144e-01
2.365303782957585144e-01
2.426442491402369117e-01
2.426442491402369117e-01
2.388230798624378926e-01
2.388230798624378926e-01
2.388230798624378926e-01
2.445548337791364213e-01
2.445548337791364213e-01
2.384409629346579962e-01
2.384409629346579962e-01
2.384409629346579962e-01
2.376767290790982035e-01
2.376767290790982035e-01
2.388230798624378926e-01
2.388230798624378926e-01
2.388230798624378926e-01
2.399694306457776094e-01
2.399694306457776094e-01
2.430263660680168081e-01
2.430263660680168081e-01
2.430263660680168081e-01
2.457011845624761104e-01
2.457011845624761104e-01
2.437905999235766008e-01
2.437905999235766008e-01
2.437905999235766008e-01
2.445548337791364213e-01
2.445548337791364213e-01
2.372946121513183071e-01
2.372946121513183071e-01
2.372946121513183071e-01
2.372946121513183071e-01
2.372946121513183071e-01
2.449369507069163177e-01
2.449369507069163177e-01
2.449369507069163177e-01
2.361482613679785902e-01
2.361482613679785902e-01
2.399694306457776094e-01
2.399694306457776094e-01
2.399694306457776094e-01
2.323270920901795988e-01
2.323270920901795988e-01
2.414978983568972226e-01
2.414978983568972226e-01
2.414978983568972226e-01
2.418800152846771190e-01
2.418800152846771190e-01
2.453190676346962140e-01
2.453190676346962140e-01
2.453190676346962140e-01
2.392051967902178167e-01
2.392051967902178167e-01
2.388230798624378926e-01
2.388230798624378926e-01
2.388230798624378926e-01
2.403515475735575058e-01
2.403515475735575058e-01
2.376767290790982035e-01
2.376767290790982035e-01
2.376767290790982035e-01
2.365303782957585144e-01
2.365303782957585144e-01
2.392051967902178167e-01
2.392051967902178167e-01
2.392051967902178167e-01
2.327092090179594952e-01
2.327092090179594952e-01
2.315628582346198061e-01
2.315628582346198061e-01
2.315628582346198061e-01
2.327092090179594952e-01
2.327092090179594952e-01
2.346197936568590048e-01
2.346197936568590048e-01
2.346197936568590048e-01
2.346197936568590048e-01
2.346197936568590048e-01
2.307986243790599856e-01
2.307986243790599856e-01
2.307986243790599856e-01
2.273595720290408906e-01
2.273595720290408906e-01
2.311807413068398820e-01
2.311807413068398820e-01
2.311807413068398820e-01
2.361482613679785902e-01
2.361482613679785902e-01
2.357661444401986939e-01
2.357661444401986939e-01
2.357661444401986939e-01
2.319449751623997025e-01
2.319449751623997025e-01
2.311807413068398820e-01
2.311807413068398820e-01
2.311807413068398820e-01
2.277416889568207869e-01
2.277416889568207869e-01
2.285059228123805797e-01
2.285059228123805797e-01
2.285059228123805797e-01
2.277416889568207869e-01
2.277416889568207869e-01
2.269774551012609942e-01
2.269774551012609942e-01
2.269774551012609942e-01
2.250668704623614846e-01
2.250668704623614846e-01
2.258311043179212774e-01
2.258311043179212774e-01
2.258311043179212774e-01
2.254489873901413810e-01
2.254489873901413810e-01
2.285059228123805797e-01
2.285059228123805797e-01
2.285059228123805797e-01
2.307986243790599856e-01
2.307986243790599856e-01
2.216278181123423896e-01
2.216278181123423896e-01
2.216278181123423896e-01
2.273595720290408906e-01
2.273595720290408906e-01
2.285059228123805797e-01
2.285059228123805797e-01
2.285059228123805797e-01
2.311807413068398820e-01
2.311807413068398820e-01
2.292701566679404002e-01
2.292701566679404002e-01
2.292701566679404002e-01
2.277416889568207869e-01
2.277416889568207869e-01
2.346197936568590048e-01
2.346197936568590048e-01
2.277416889568207869e-01
2.277416889568207869e-01
2.277416889568207869e-01
2.376767290790982035e-01
2.376767290790982035e-01
2.323270920901795988e-01
2.323270920901795988e-01
2.323270920901795988e-01
2.315628582346198061e-01
2.315628582346198061e-01
2.311807413068398820e-01
2.311807413068398820e-01
2.311807413068398820e-01
2.262132212457011737e-01
2.262132212457011737e-01
2.250668704623614846e-01
2.250668704623614846e-01
2.250668704623614846e-01
2.200993504012227764e-01
2.200993504012227764e-01
2.204814673290026728e-01
2.204814673290026728e-01
2.204814673290026728e-01
2.231562858234619751e-01
2.231562858234619751e-01
2.227741688956820787e-01
2.227741688956820787e-01
2.227741688956820787e-01
2.185708826901031632e-01
2.185708826901031632e-01
2.189529996178830595e-01
2.189529996178830595e-01
2.189529996178830595e-01
2.204814673290026728e-01
2.204814673290026728e-01
2.193351165456629837e-01
2.193351165456629837e-01
2.193351165456629837e-01
2.288880397401604760e-01
2.288880397401604760e-01
2.277416889568207869e-01
2.277416889568207869e-01
2.277416889568207869e-01
2.288880397401604760e-01
2.288880397401604760e-01
2.288880397401604760e-01
2.288880397401604760e-01
2.288880397401604760e-01
2.273595720290408906e-01
2.273595720290408906e-01
2.174245319067634741e-01
2.174245319067634741e-01
2.174245319067634741e-01
2.250668704623614846e-01
2.250668704623614846e-01
2.239205196790217678e-01
2.239205196790217678e-01
2.239205196790217678e-01
2.273595720290408906e-01
2.273595720290408906e-01
2.216278181123423896e-01
2.216278181123423896e-01
2.216278181123423896e-01
2.269774551012609942e-01
2.269774551012609942e-01
2.300343905235001929e-01
2.300343905235001929e-01
2.300343905235001929e-01
2.200993504012227764e-01
2.200993504012227764e-01
2.269774551012609942e-01
2.269774551012609942e-01
2.269774551012609942e-01
2.216278181123423896e-01
2.216278181123423896e-01
2.262132212457011737e-01
2.262132212457011737e-01
2.262132212457011737e-01
2.220099350401222860e-01
2.220099350401222860e-01
2.216278181123423896e-01
2.216278181123423896e-01
2.216278181123423896e-01
2.285059228123805797e-01
2.285059228123805797e-01
2.178066488345433704e-01
2.178066488345433704e-01
2.178066488345433704e-01
2.166602980512036813e-01
2.166602980512036813e-01
2.243026366068016919e-01
2.243026366068016919e-01
2.243026366068016919e-01
2.281238058846006833e-01
2.281238058846006833e-01
2.189529996178830595e-01
2.189529996178830595e-01
2.189529996178830595e-01
2.155139472678639645e-01
2.155139472678639645e-01
2.193351165456629837e-01
2.193351165456629837e-01
2.193351165456629837e-01
2.223920519679021823e-01
2.223920519679021823e-01
2.204814673290026728e-01
2.204814673290026728e-01
2.204814673290026728e-01
2.311807413068398820e-01
2.311807413068398820e-01
2.200993504012227764e-01
2.200993504012227764e-01
2.200993504012227764e-01
2.166602980512036813e-01
2.166602980512036813e-01
2.120748949178448695e-01
2.120748949178448695e-01
2.120748949178448695e-01
2.097821933511654635e-01
2.097821933511654635e-01
2.097821933511654635e-01
2.097821933511654635e-01
2.097821933511654635e-01
2.105464272067252562e-01
2.105464272067252562e-01
2.174245319067634741e-01
2.174245319067634741e-01
2.174245319067634741e-01
2.178066488345433704e-01
2.178066488345433704e-01
2.162781811234237572e-01
2.162781811234237572e-01
2.162781811234237572e-01
2.181887657623232668e-01
2.181887657623232668e-01
2.193351165456629837e-01
2.193351165456629837e-01
2.193351165456629837e-01
2.155139472678639645e-01
2.155139472678639645e-01
2.197172334734428800e-01
2.197172334734428800e-01
2.197172334734428800e-01
2.193351165456629837e-01
2.193351165456629837e-01
2.200993504012227764e-01
2.200993504012227764e-01
2.200993504012227764e-01
2.227741688956820787e-01
2.227741688956820787e-01
2.166602980512036813e-01
2.166602980512036813e-01
2.166602980512036813e-01
2.235384027512418714e-01
2.235384027512418714e-01
2.128391287734046622e-01
2.128391287734046622e-01
2.128391287734046622e-01
2.212457011845624655e-01
2.212457011845624655e-01
2.231562858234619751e-01
2.231562858234619751e-01
2.231562858234619751e-01
2.208635842567825691e-01
2.208635842567825691e-01
2.185708826901031632e-01
2.185708826901031632e-01
2.185708826901031632e-01
2.231562858234619751e-01
2.231562858234619751e-01
2.113106610622850490e-01
2.113106610622850490e-01
2.113106610622850490e-01
2.101643102789453599e-01
2.101643102789453599e-01
2.128391287734046622e-01
2.128391287734046622e-01
2.128391287734046622e-01
2.212457011845624655e-01
2.212457011845624655e-01
2.147497134123041718e-01
2.147497134123041718e-01
2.147497134123041718e-01
2.082537256400458503e-01
2.082537256400458503e-01
2.216278181123423896e-01
2.216278181123423896e-01
2.216278181123423896e-01
2.151318303400840681e-01
2.151318303400840681e-01
2.078716087122659539e-01
2.078716087122659539e-01
2.078716087122659539e-01
2.113106610622850490e-01
2.113106610622850490e-01
2.120748949178448695e-01
2.120748949178448695e-01
2.120748949178448695e-01
2.116927779900649731e-01
2.116927779900649731e-01
2.124570118456247658e-01
2.124570118456247658e-01
2.124570118456247658e-01
2.139854795567443513e-01
2.139854795567443513e-01
2.155139472678639645e-01
2.155139472678639645e-01
2.132212457011845586e-01
2.132212457011845586e-01
2.132212457011845586e-01
2.162781811234237572e-01
2.162781811234237572e-01
2.116927779900649731e-01
2.116927779900649731e-01
2.116927779900649731e-01
2.128391287734046622e-01
2.128391287734046622e-01
2.067252579289262648e-01
2.067252579289262648e-01
2.067252579289262648e-01
2.071073748567061612e-01
2.071073748567061612e-01
2.174245319067634741e-01
2.174245319067634741e-01
2.174245319067634741e-01
2.036683225066870384e-01
2.036683225066870384e-01
2.158960641956438609e-01
2.158960641956438609e-01
2.158960641956438609e-01
2.078716087122659539e-01
2.078716087122659539e-01
2.139854795567443513e-01
2.139854795567443513e-01
2.139854795567443513e-01
2.055789071455865480e-01
2.055789071455865480e-01
2.105464272067252562e-01
2.105464272067252562e-01
2.105464272067252562e-01
2.055789071455865480e-01
2.055789071455865480e-01
2.124570118456247658e-01
2.124570118456247658e-01
2.124570118456247658e-01
2.189529996178830595e-01
2.189529996178830595e-01
2.101643102789453599e-01
2.101643102789453599e-01
2.101643102789453599e-01
2.193351165456629837e-01
2.193351165456629837e-01
2.185708826901031632e-01
2.185708826901031632e-01
2.185708826901031632e-01
2.200993504012227764e-01
2.200993504012227764e-01
2.262132212457011737e-01
2.262132212457011737e-01
2.262132212457011737e-01
2.174245319067634741e-01
2.174245319067634741e-01
2.250668704623614846e-01
2.250668704623614846e-01
2.250668704623614846e-01
2.216278181123423896e-01
2.216278181123423896e-01
2.254489873901413810e-01
2.254489873901413810e-01
2.254489873901413810e-01
2.212457011845624655e-01
2.212457011845624655e-01
2.220099350401222860e-01
2.220099350401222860e-01
2.220099350401222860e-01
2.212457011845624655e-01
2.212457011845624655e-01
2.338555598012991843e-01
2.338555598012991843e-01
2.338555598012991843e-01
2.288880397401604760e-01
2.288880397401604760e-01
2.342376767290791084e-01
2.342376767290791084e-01
2.342376767290791084e-01
2.392051967902178167e-01
2.392051967902178167e-01
2.327092090179594952e-01
2.327092090179594952e-01
2.327092090179594952e-01
2.304165074512800893e-01
2.304165074512800893e-01
2.395873137179977130e-01
2.395873137179977130e-01
2.395873137179977130e-01
2.499044707680550259e-01
2.499044707680550259e-01
2.495223538402751295e-01
2.495223538402751295e-01
2.495223538402751295e-01
2.521971723347344319e-01
2.521971723347344319e-01
2.472296522735957236e-01
2.472296522735957236e-01
2.472296522735957236e-01
2.556362246847535546e-01
2.556362246847535546e-01
2.575468093236530365e-01
2.575468093236530365e-01
2.575468093236530365e-01
2.483760030569354127e-01
2.483760030569354127e-01
2.567825754680932437e-01
2.567825754680932437e-01
2.567825754680932437e-01
2.567825754680932437e-01
2.567825754680932437e-01
2.571646923958731401e-01
2.571646923958731401e-01
2.571646923958731401e-01
2.621322124570118484e-01
2.621322124570118484e-01
2.602216278181123665e-01
2.602216278181123665e-01
2.602216278181123665e-01
2.713030187237294721e-01
2.713030187237294721e-01
2.659533817348108675e-01
2.659533817348108675e-01
2.659533817348108675e-01
2.682460833014902457e-01
2.682460833014902457e-01
2.674818494459304530e-01
2.674818494459304530e-01
2.674818494459304530e-01
2.716851356515093685e-01
2.716851356515093685e-01
2.747420710737485394e-01
2.747420710737485394e-01
2.747420710737485394e-01
2.735957202904088503e-01
2.735957202904088503e-01
2.755063049293083877e-01
2.755063049293083877e-01
2.755063049293083877e-01
2.724493695070691612e-01
2.724493695070691612e-01
2.766526557126480768e-01
2.766526557126480768e-01
2.766526557126480768e-01
2.892625143293847678e-01
2.892625143293847678e-01
2.808559419182269923e-01
2.808559419182269923e-01
2.808559419182269923e-01
2.831486434849063705e-01
2.831486434849063705e-01
2.865876958349254933e-01
2.865876958349254933e-01
2.865876958349254933e-01
2.793274742071073513e-01
2.793274742071073513e-01
2.800917080626671996e-01
2.800917080626671996e-01
2.800917080626671996e-01
2.816201757737867850e-01
2.816201757737867850e-01
2.865876958349254933e-01
2.865876958349254933e-01
2.865876958349254933e-01
2.892625143293847678e-01
2.892625143293847678e-01
2.812380588460068886e-01
2.812380588460068886e-01
2.812380588460068886e-01
2.869698127627053896e-01
2.869698127627053896e-01
2.862055789071455969e-01
2.862055789071455969e-01
2.862055789071455969e-01
2.900267481849446161e-01
2.900267481849446161e-01
2.957585021016431170e-01
2.957585021016431170e-01
2.957585021016431170e-01
2.850592281238059078e-01
2.850592281238059078e-01
2.930836836071837870e-01
2.930836836071837870e-01
2.930836836071837870e-01
2.927015666794038906e-01
2.927015666794038906e-01
2.980512036683224952e-01
2.980512036683224952e-01
2.980512036683224952e-01
2.900267481849446161e-01
2.900267481849446161e-01
2.999617883072220326e-01
2.999617883072220326e-01
2.999617883072220326e-01
2.938479174627435797e-01
2.938479174627435797e-01
2.965227359572029098e-01
2.965227359572029098e-01
2.965227359572029098e-01
2.930836836071837870e-01
2.930836836071837870e-01
2.942300343905234761e-01
2.942300343905234761e-01
2.980512036683224952e-01
2.980512036683224952e-01
2.980512036683224952e-01
2.862055789071455969e-01
2.862055789071455969e-01
2.915552158960642015e-01
2.915552158960642015e-01
2.915552158960642015e-01
2.934658005349636833e-01
2.934658005349636833e-01
2.965227359572029098e-01
2.965227359572029098e-01
2.965227359572029098e-01
2.930836836071837870e-01
2.930836836071837870e-01
2.984333205961023916e-01
2.984333205961023916e-01
2.984333205961023916e-01
3.068398930072602226e-01
3.068398930072602226e-01
3.014902560183416180e-01
3.014902560183416180e-01
3.014902560183416180e-01
3.007260221627818253e-01
3.007260221627818253e-01
3.056935422239205336e-01
3.056935422239205336e-01
3.056935422239205336e-01
2.972869698127627025e-01
2.972869698127627025e-01
2.946121513183034279e-01
2.946121513183034279e-01
2.946121513183034279e-01
3.030187237294612035e-01
3.030187237294612035e-01
2.999617883072220326e-01
2.999617883072220326e-01
2.999617883072220326e-01
3.060756591517004299e-01
3.060756591517004299e-01
2.953763851738632207e-01
2.953763851738632207e-01
2.953763851738632207e-01
3.007260221627818253e-01
3.007260221627818253e-01
3.022544898739014108e-01
3.022544898739014108e-01
3.022544898739014108e-01
3.083683607183798081e-01
3.083683607183798081e-01
2.999617883072220326e-01
2.999617883072220326e-01
2.999617883072220326e-01
3.026366068016813071e-01
3.026366068016813071e-01
3.087504776461597045e-01
3.087504776461597045e-01
3.087504776461597045e-01
3.091325945739396008e-01
3.091325945739396008e-01
2.991975544516621843e-01
2.991975544516621843e-01
2.991975544516621843e-01
2.965227359572029098e-01
2.965227359572029098e-01
2.969048528849828061e-01
2.969048528849828061e-01
2.969048528849828061e-01
2.995796713794421362e-01
2.995796713794421362e-01
2.965227359572029098e-01
2.965227359572029098e-01
2.965227359572029098e-01
3.045471914405808445e-01
3.045471914405808445e-01
3.041650745128008926e-01
3.041650745128008926e-01
3.041650745128008926e-01
2.988154375238822880e-01
2.988154375238822880e-01
2.961406190294230134e-01
2.961406190294230134e-01
2.961406190294230134e-01
3.079862437905999117e-01
3.079862437905999117e-01
2.965227359572029098e-01
2.965227359572029098e-01
2.965227359572029098e-01
2.934658005349636833e-01
2.934658005349636833e-01
3.022544898739014108e-01
3.022544898739014108e-01
3.022544898739014108e-01
2.972869698127627025e-01
2.972869698127627025e-01
2.980512036683224952e-01
2.980512036683224952e-01
2.980512036683224952e-01
2.961406190294230134e-01
2.961406190294230134e-01
2.961406190294230134e-01
2.961406190294230134e-01
2.961406190294230134e-01
3.014902560183416180e-01
3.014902560183416180e-01
2.946121513183034279e-01
2.946121513183034279e-01
2.946121513183034279e-01
2.938479174627435797e-01
2.938479174627435797e-01
2.961406190294230134e-01
2.961406190294230134e-01
2.961406190294230134e-01
2.915552158960642015e-01
2.915552158960642015e-01
2.980512036683224952e-01
2.980512036683224952e-01
2.980512036683224952e-01
2.877340466182651824e-01
2.877340466182651824e-01
2.972869698127627025e-01
2.972869698127627025e-01
2.972869698127627025e-01
2.869698127627053896e-01
2.869698127627053896e-01
2.850592281238059078e-01
2.850592281238059078e-01
2.850592281238059078e-01
2.862055789071455969e-01
2.862055789071455969e-01
2.797095911348873032e-01
2.797095911348873032e-01
2.797095911348873032e-01
2.785632403515475586e-01
2.785632403515475586e-01
2.831486434849063705e-01
2.831486434849063705e-01
2.831486434849063705e-01
2.850592281238059078e-01
2.850592281238059078e-01
2.862055789071455969e-01
2.862055789071455969e-01
2.862055789071455969e-01
2.835307604126862668e-01
2.835307604126862668e-01
2.881161635460450787e-01
2.881161635460450787e-01
2.881161635460450787e-01
2.770347726404279731e-01
2.770347726404279731e-01
2.777990064959877659e-01
2.777990064959877659e-01
2.777990064959877659e-01
2.800917080626671996e-01
2.800917080626671996e-01
2.720672525792892649e-01
2.720672525792892649e-01
2.720672525792892649e-01
2.774168895682078695e-01
2.774168895682078695e-01
2.781811234237676622e-01
2.781811234237676622e-01
2.781811234237676622e-01
2.758884218570882840e-01
2.758884218570882840e-01
2.713030187237294721e-01
2.713030187237294721e-01
2.713030187237294721e-01
2.724493695070691612e-01
2.724493695070691612e-01
2.678639663737103493e-01
2.678639663737103493e-01
2.678639663737103493e-01
2.693924340848299348e-01
2.693924340848299348e-01
2.777990064959877659e-01
2.777990064959877659e-01
2.777990064959877659e-01
2.735957202904088503e-01
2.735957202904088503e-01
2.667176155903706603e-01
2.667176155903706603e-01
2.667176155903706603e-01
2.739778372181887467e-01
2.739778372181887467e-01
2.701566679403897830e-01
2.701566679403897830e-01
2.701566679403897830e-01
2.667176155903706603e-01
2.667176155903706603e-01
2.697745510126098312e-01
2.697745510126098312e-01
2.697745510126098312e-01
2.682460833014902457e-01
2.682460833014902457e-01
2.686282002292701421e-01
2.686282002292701421e-01
2.686282002292701421e-01
2.594573939625525183e-01
2.594573939625525183e-01
2.701566679403897830e-01
2.701566679403897830e-01
2.701566679403897830e-01
2.693924340848299348e-01
2.693924340848299348e-01
2.667176155903706603e-01
2.667176155903706603e-01
2.674818494459304530e-01
2.674818494459304530e-01
2.674818494459304530e-01
2.579289262514329328e-01
2.579289262514329328e-01
2.640427970959113302e-01
2.640427970959113302e-01
2.640427970959113302e-01
2.663354986625907639e-01
2.663354986625907639e-01
2.632785632403515375e-01
2.632785632403515375e-01
2.632785632403515375e-01
2.667176155903706603e-01
2.667176155903706603e-01
2.521971723347344319e-01
2.521971723347344319e-01
2.521971723347344319e-01
2.598395108903324147e-01
2.598395108903324147e-01
2.564004585403133474e-01
2.564004585403133474e-01
2.564004585403133474e-01
2.556362246847535546e-01
2.556362246847535546e-01
2.648070309514711229e-01
2.648070309514711229e-01
2.648070309514711229e-01
2.552541077569736583e-01
2.552541077569736583e-01
2.594573939625525183e-01
2.594573939625525183e-01
2.594573939625525183e-01
2.575468093236530365e-01
2.575468093236530365e-01
2.521971723347344319e-01
2.521971723347344319e-01
2.521971723347344319e-01
2.552541077569736583e-01
2.552541077569736583e-01
2.514329384791746391e-01
2.514329384791746391e-01
2.514329384791746391e-01
2.579289262514329328e-01
2.579289262514329328e-01
2.632785632403515375e-01
2.632785632403515375e-01
2.632785632403515375e-01
2.560183416125334510e-01
2.560183416125334510e-01
2.567825754680932437e-01
2.567825754680932437e-01
2.567825754680932437e-01
2.552541077569736583e-01
2.552541077569736583e-01
2.583110431792128292e-01
2.583110431792128292e-01
2.583110431792128292e-01
2.564004585403133474e-01
2.564004585403133474e-01
2.499044707680550259e-01
2.499044707680550259e-01
2.499044707680550259e-01
2.571646923958731401e-01
2.571646923958731401e-01
2.499044707680550259e-01
2.499044707680550259e-01
2.499044707680550259e-01
2.472296522735957236e-01
2.472296522735957236e-01
2.472296522735957236e-01
2.472296522735957236e-01
2.472296522735957236e-01
2.464654184180359309e-01
2.464654184180359309e-01
2.491402369124952332e-01
2.491402369124952332e-01
2.491402369124952332e-01
2.518150554069545355e-01
2.518150554069545355e-01
2.472296522735957236e-01
2.472296522735957236e-01
2.472296522735957236e-01
2.529614061902942246e-01
2.529614061902942246e-01
2.464654184180359309e-01
2.464654184180359309e-01
2.464654184180359309e-01
2.460833014902560067e-01
2.460833014902560067e-01
2.541077569736339137e-01
2.541077569736339137e-01
2.541077569736339137e-01
2.483760030569354127e-01
2.483760030569354127e-01
2.441727168513565249e-01
2.441727168513565249e-01
2.441727168513565249e-01
2.460833014902560067e-01
2.460833014902560067e-01
2.380588460068780998e-01
2.380588460068780998e-01
2.380588460068780998e-01
2.403515475735575058e-01
2.403515475735575058e-01
2.502865876958349500e-01
2.502865876958349500e-01
2.502865876958349500e-01
2.453190676346962140e-01
2.453190676346962140e-01
2.407336645013374021e-01
2.407336645013374021e-01
2.407336645013374021e-01
2.437905999235766008e-01
2.437905999235766008e-01
2.472296522735957236e-01
2.472296522735957236e-01
2.472296522735957236e-01
2.407336645013374021e-01
2.407336645013374021e-01
2.487581199847153091e-01
2.487581199847153091e-01
2.487581199847153091e-01
2.357661444401986939e-01
2.357661444401986939e-01
2.380588460068780998e-01
2.380588460068780998e-01
2.380588460068780998e-01
2.426442491402369117e-01
2.426442491402369117e-01
2.342376767290791084e-01
2.342376767290791084e-01
2.342376767290791084e-01
2.292701566679404002e-01
2.292701566679404002e-01
2.445548337791364213e-01
2.445548337791364213e-01
2.445548337791364213e-01
2.403515475735575058e-01
2.403515475735575058e-01
2.418800152846771190e-01
2.418800152846771190e-01
2.418800152846771190e-01
2.369124952235384107e-01
2.369124952235384107e-01
2.399694306457776094e-01
2.399694306457776094e-01
2.399694306457776094e-01
2.350019105846389011e-01
2.350019105846389011e-01
2.388230798624378926e-01
2.388230798624378926e-01
2.388230798624378926e-01
2.357661444401986939e-01
2.357661444401986939e-01
2.411157814291172985e-01
2.411157814291172985e-01
2.411157814291172985e-01
2.315628582346198061e-01
2.315628582346198061e-01
2.376767290790982035e-01
2.376767290790982035e-01
2.376767290790982035e-01
2.453190676346962140e-01
2.453190676346962140e-01
2.300343905235001929e-01
2.300343905235001929e-01
2.300343905235001929e-01
2.350019105846389011e-01
2.350019105846389011e-01
2.372946121513183071e-01
2.372946121513183071e-01
2.372946121513183071e-01
2.346197936568590048e-01
2.346197936568590048e-01
2.353840275124187975e-01
2.353840275124187975e-01
2.353840275124187975e-01
2.311807413068398820e-01
2.311807413068398820e-01
2.281238058846006833e-01
2.281238058846006833e-01
2.281238058846006833e-01
2.407336645013374021e-01
2.407336645013374021e-01
2.254489873901413810e-01
2.254489873901413810e-01
2.254489873901413810e-01
2.262132212457011737e-01
2.262132212457011737e-01
2.273595720290408906e-01
2.273595720290408906e-01
2.273595720290408906e-01
2.277416889568207869e-01
2.277416889568207869e-01
2.292701566679404002e-01
2.292701566679404002e-01
2.292701566679404002e-01
2.292701566679404002e-01
2.292701566679404002e-01
2.246847535345815883e-01
2.246847535345815883e-01
2.254489873901413810e-01
2.254489873901413810e-01
2.254489873901413810e-01
2.296522735957202965e-01
2.296522735957202965e-01
2.307986243790599856e-01
2.307986243790599856e-01
2.307986243790599856e-01
2.273595720290408906e-01
2.273595720290408906e-01
2.262132212457011737e-01
2.262132212457011737e-01
2.262132212457011737e-01
2.319449751623997025e-01
2.319449751623997025e-01
2.258311043179212774e-01
2.258311043179212774e-01
2.258311043179212774e-01
2.285059228123805797e-01
2.285059228123805797e-01
2.223920519679021823e-01
2.223920519679021823e-01
2.223920519679021823e-01
2.250668704623614846e-01
2.250668704623614846e-01
2.227741688956820787e-01
2.227741688956820787e-01
2.227741688956820787e-01
2.208635842567825691e-01
2.208635842567825691e-01
2.277416889568207869e-01
2.277416889568207869e-01
2.277416889568207869e-01
2.323270920901795988e-01
2.323270920901795988e-01
2.197172334734428800e-01
2.197172334734428800e-01
2.197172334734428800e-01
2.193351165456629837e-01
2.193351165456629837e-01
2.265953381734810979e-01
2.265953381734810979e-01
2.265953381734810979e-01
2.200993504012227764e-01
2.200993504012227764e-01
2.262132212457011737e-01
2.262132212457011737e-01
2.262132212457011737e-01
2.246847535345815883e-01
2.246847535345815883e-01
2.151318303400840681e-01
2.151318303400840681e-01
2.151318303400840681e-01
2.277416889568207869e-01
2.277416889568207869e-01
2.239205196790217678e-01
2.239205196790217678e-01
2.239205196790217678e-01
2.227741688956820787e-01
2.227741688956820787e-01
2.250668704623614846e-01
2.250668704623614846e-01
2.250668704623614846e-01
2.311807413068398820e-01
2.311807413068398820e-01
2.189529996178830595e-01
2.189529996178830595e-01
2.189529996178830595e-01
2.231562858234619751e-01
2.231562858234619751e-01
2.208635842567825691e-01
2.208635842567825691e-01
2.208635842567825691e-01
2.277416889568207869e-01
2.277416889568207869e-01
2.105464272067252562e-01
2.105464272067252562e-01
2.105464272067252562e-01
2.231562858234619751e-01
2.231562858234619751e-01
2.220099350401222860e-01
2.220099350401222860e-01
2.220099350401222860e-01
2.204814673290026728e-01
2.204814673290026728e-01
2.147497134123041718e-01
2.147497134123041718e-01
2.147497134123041718e-01
2.143675964845242754e-01
2.143675964845242754e-01
2.143675964845242754e-01
2.143675964845242754e-01
2.143675964845242754e-01
2.243026366068016919e-01
2.243026366068016919e-01
2.235384027512418714e-01
2.235384027512418714e-01
2.235384027512418714e-01
2.181887657623232668e-01
2.181887657623232668e-01
2.239205196790217678e-01
2.239205196790217678e-01
2.239205196790217678e-01
2.158960641956438609e-01
2.158960641956438609e-01
2.220099350401222860e-01
2.220099350401222860e-01
2.220099350401222860e-01
2.139854795567443513e-01
2.139854795567443513e-01
2.090179594956056430e-01
2.090179594956056430e-01
2.090179594956056430e-01
2.143675964845242754e-01
2.143675964845242754e-01
2.143675964845242754e-01
2.143675964845242754e-01
2.143675964845242754e-01
2.128391287734046622e-01
2.128391287734046622e-01
2.113106610622850490e-01
2.113106610622850490e-01
2.113106610622850490e-01
2.082537256400458503e-01
2.082537256400458503e-01
2.174245319067634741e-01
2.174245319067634741e-01
2.174245319067634741e-01
2.132212457011845586e-01
2.132212457011845586e-01
2.116927779900649731e-01
2.116927779900649731e-01
2.116927779900649731e-01
2.124570118456247658e-01
2.124570118456247658e-01
2.174245319067634741e-01
2.174245319067634741e-01
2.174245319067634741e-01
2.090179594956056430e-01
2.090179594956056430e-01
2.193351165456629837e-01
2.193351165456629837e-01
2.193351165456629837e-01
2.166602980512036813e-01
2.166602980512036813e-01
2.105464272067252562e-01
2.105464272067252562e-01
2.105464272067252562e-01
2.193351165456629837e-01
2.193351165456629837e-01
2.147497134123041718e-01
2.147497134123041718e-01
2.147497134123041718e-01
2.082537256400458503e-01
2.082537256400458503e-01
2.094000764233855671e-01
2.094000764233855671e-01
2.094000764233855671e-01
2.086358425678257467e-01
2.086358425678257467e-01
2.231562858234619751e-01
2.231562858234619751e-01
2.231562858234619751e-01
2.166602980512036813e-01
2.166602980512036813e-01
2.097821933511654635e-01
2.097821933511654635e-01
2.097821933511654635e-01
2.143675964845242754e-01
2.143675964845242754e-01
2.120748949178448695e-01
2.120748949178448695e-01
2.120748949178448695e-01
2.086358425678257467e-01
2.086358425678257467e-01
2.166602980512036813e-01
2.166602980512036813e-01
2.166602980512036813e-01
2.158960641956438609e-01
2.158960641956438609e-01
2.094000764233855671e-01
2.094000764233855671e-01
2.094000764233855671e-01
2.193351165456629837e-01
2.193351165456629837e-01
2.170424149789835777e-01
2.170424149789835777e-01
2.170424149789835777e-01
2.143675964845242754e-01
2.143675964845242754e-01
2.090179594956056430e-01
2.090179594956056430e-01
2.090179594956056430e-01
2.170424149789835777e-01
2.170424149789835777e-01
2.166602980512036813e-01
2.166602980512036813e-01
2.166602980512036813e-01
2.189529996178830595e-01
2.189529996178830595e-01
2.197172334734428800e-01
2.197172334734428800e-01
2.124570118456247658e-01
2.124570118456247658e-01
2.124570118456247658e-01
2.174245319067634741e-01
2.174245319067634741e-01
2.113106610622850490e-01
2.113106610622850490e-01
2.113106610622850490e-01
2.204814673290026728e-01
2.204814673290026728e-01
2.200993504012227764e-01
2.200993504012227764e-01
2.200993504012227764e-01
2.101643102789453599e-01
2.101643102789453599e-01
2.143675964845242754e-01
2.143675964845242754e-01
2.143675964845242754e-01
2.147497134123041718e-01
2.147497134123041718e-01
2.044325563622468589e-01
2.044325563622468589e-01
2.044325563622468589e-01
2.113106610622850490e-01
2.113106610622850490e-01
2.078716087122659539e-01
2.078716087122659539e-01
2.078716087122659539e-01
2.097821933511654635e-01
2.097821933511654635e-01
2.174245319067634741e-01
2.174245319067634741e-01
2.174245319067634741e-01
2.116927779900649731e-01
2.116927779900649731e-01
