4.245319067634696353e-01
4.138326327856324260e-01
4.138326327856324260e-01
4.138326327856324260e-01
4.145968666411922188e-01
4.145968666411922188e-01
4.145968666411922188e-01
4.145968666411922188e-01
4.145968666411922188e-01
4.081008788689338695e-01
4.081008788689338695e-01
4.042797095911349059e-01
4.042797095911349059e-01
4.042797095911349059e-01
4.096293465800535105e-01
4.096293465800535105e-01
3.970194879633167639e-01
3.970194879633167639e-01
3.970194879633167639e-01
4.038975926633550095e-01
4.038975926633550095e-01
3.920519679021780557e-01
3.920519679021780557e-01
3.920519679021780557e-01
3.916698509743981593e-01
3.916698509743981593e-01
3.939625525410775930e-01
3.939625525410775930e-01
3.939625525410775930e-01
3.928162017577378484e-01
3.928162017577378484e-01
3.817348108521207428e-01
3.817348108521207428e-01
3.817348108521207428e-01
3.740924722965227600e-01
3.740924722965227600e-01
3.626289644631257025e-01
3.626289644631257025e-01
3.626289644631257025e-01
3.691249522353840518e-01
3.691249522353840518e-01
3.691249522353840518e-01
3.691249522353840518e-01
3.691249522353840518e-01
3.519296904852884933e-01
3.519296904852884933e-01
3.526939243408482860e-01
3.526939243408482860e-01
3.526939243408482860e-01
3.568972105464272015e-01
3.568972105464272015e-01
3.500191058463890115e-01
3.500191058463890115e-01
3.500191058463890115e-01
3.572793274742070979e-01
3.572793274742070979e-01
3.419946503630110768e-01
3.419946503630110768e-01
3.419946503630110768e-01
3.347344287351929903e-01
3.347344287351929903e-01
3.263278563240351593e-01
3.263278563240351593e-01
3.263278563240351593e-01
3.255636224684753666e-01
3.255636224684753666e-01
3.102789453572793454e-01
3.102789453572793454e-01
3.102789453572793454e-01
3.190676346962170173e-01
3.190676346962170173e-01
3.083683607183798081e-01
3.083683607183798081e-01
3.083683607183798081e-01
3.217424531906763474e-01
3.217424531906763474e-01
2.984333205961023916e-01
2.984333205961023916e-01
2.984333205961023916e-01
3.068398930072602226e-01
3.068398930072602226e-01
2.953763851738632207e-01
2.953763851738632207e-01
2.953763851738632207e-01
3.087504776461597045e-01
3.087504776461597045e-01
2.995796713794421362e-01
2.995796713794421362e-01
2.995796713794421362e-01
2.869698127627053896e-01
2.869698127627053896e-01
2.877340466182651824e-01
2.877340466182651824e-01
2.877340466182651824e-01
2.812380588460068886e-01
2.812380588460068886e-01
2.839128773404661632e-01
2.839128773404661632e-01
2.839128773404661632e-01
2.789453572793274549e-01
2.789453572793274549e-01
2.835307604126862668e-01
2.835307604126862668e-01
2.835307604126862668e-01
2.770347726404279731e-01
2.770347726404279731e-01
2.670997325181505566e-01
2.670997325181505566e-01
2.670997325181505566e-01
2.651891478792510748e-01
2.651891478792510748e-01
2.655712648070309712e-01
2.655712648070309712e-01
2.655712648070309712e-01
2.682460833014902457e-01
2.682460833014902457e-01
2.521971723347344319e-01
2.521971723347344319e-01
2.521971723347344319e-01
2.606037447458922629e-01
2.606037447458922629e-01
2.434084829957967044e-01
2.434084829957967044e-01
2.434084829957967044e-01
2.468475353458158272e-01
2.468475353458158272e-01
2.479938861291555163e-01
2.479938861291555163e-01
2.479938861291555163e-01
2.617500955292319520e-01
2.617500955292319520e-01
2.552541077569736583e-01
2.552541077569736583e-01
2.552541077569736583e-01
2.434084829957967044e-01
2.434084829957967044e-01
2.499044707680550259e-01
2.499044707680550259e-01
2.499044707680550259e-01
2.422621322124570153e-01
2.422621322124570153e-01
2.361482613679785902e-01
2.361482613679785902e-01
2.361482613679785902e-01
2.548719908291937064e-01
2.548719908291937064e-01
2.426442491402369117e-01
2.426442491402369117e-01
2.426442491402369117e-01
2.319449751623997025e-01
2.319449751623997025e-01
2.350019105846389011e-01
2.350019105846389011e-01
2.350019105846389011e-01
2.311807413068398820e-01
2.311807413068398820e-01
2.330913259457393916e-01
2.330913259457393916e-01
2.330913259457393916e-01
2.246847535345815883e-01
2.246847535345815883e-01
2.212457011845624655e-01
2.212457011845624655e-01
2.212457011845624655e-01
2.342376767290791084e-01
2.342376767290791084e-01
2.262132212457011737e-01
2.262132212457011737e-01
2.239205196790217678e-01
2.239205196790217678e-01
2.239205196790217678e-01
2.254489873901413810e-01
2.254489873901413810e-01
2.311807413068398820e-01
2.311807413068398820e-01
2.311807413068398820e-01
2.239205196790217678e-01
2.239205196790217678e-01
2.158960641956438609e-01
2.158960641956438609e-01
2.158960641956438609e-01
2.174245319067634741e-01
2.174245319067634741e-01
2.258311043179212774e-01
2.258311043179212774e-01
2.258311043179212774e-01
2.158960641956438609e-01
2.158960641956438609e-01
2.128391287734046622e-01
2.128391287734046622e-01
2.128391287734046622e-01
2.113106610622850490e-01
2.113106610622850490e-01
2.090179594956056430e-01
2.090179594956056430e-01
2.090179594956056430e-01
2.239205196790217678e-01
2.239205196790217678e-01
2.082537256400458503e-01
2.082537256400458503e-01
2.082537256400458503e-01
2.090179594956056430e-01
2.090179594956056430e-01
2.025219717233473493e-01
2.025219717233473493e-01
2.025219717233473493e-01
2.243026366068016919e-01
2.243026366068016919e-01
2.204814673290026728e-01
2.204814673290026728e-01
2.204814673290026728e-01
2.109285441345051526e-01
2.109285441345051526e-01
2.082537256400458503e-01
2.082537256400458503e-01
2.082537256400458503e-01
1.990829193733282265e-01
1.990829193733282265e-01
2.021398547955674529e-01
2.021398547955674529e-01
2.021398547955674529e-01
2.120748949178448695e-01
2.120748949178448695e-01
2.017577378677875566e-01
2.017577378677875566e-01
2.017577378677875566e-01
2.158960641956438609e-01
2.158960641956438609e-01
2.116927779900649731e-01
2.116927779900649731e-01
2.116927779900649731e-01
2.132212457011845586e-01
2.132212457011845586e-01
1.868551776843714041e-01
1.868551776843714041e-01
1.868551776843714041e-01
2.017577378677875566e-01
2.017577378677875566e-01
2.101643102789453599e-01
2.101643102789453599e-01
2.101643102789453599e-01
1.902942300343905269e-01
1.902942300343905269e-01
1.944975162399694424e-01
1.944975162399694424e-01
1.944975162399694424e-01
1.952617500955292351e-01
1.952617500955292351e-01
1.910584638899503196e-01
1.910584638899503196e-01
1.910584638899503196e-01
1.967902178066488483e-01
1.967902178066488483e-01
2.002292701566679434e-01
2.002292701566679434e-01
2.002292701566679434e-01
1.815055406954527994e-01
1.815055406954527994e-01
1.815055406954527994e-01
1.815055406954527994e-01
1.815055406954527994e-01
1.853267099732518186e-01
1.853267099732518186e-01
1.811234237676729031e-01
1.811234237676729031e-01
1.811234237676729031e-01
1.971723347344287447e-01
1.971723347344287447e-01
1.799770729843332140e-01
1.799770729843332140e-01
1.799770729843332140e-01
1.922048146732900364e-01
1.922048146732900364e-01
1.830340084065724127e-01
1.830340084065724127e-01
1.830340084065724127e-01
1.880015284677111209e-01
1.880015284677111209e-01
1.811234237676729031e-01
1.811234237676729031e-01
1.811234237676729031e-01
1.696599159342759011e-01
1.696599159342759011e-01
1.933511654566297255e-01
1.933511654566297255e-01
1.933511654566297255e-01
1.799770729843332140e-01
1.799770729843332140e-01
1.826518914787925163e-01
1.826518914787925163e-01
1.826518914787925163e-01
1.635460450897974760e-01
1.635460450897974760e-01
1.765380206343140912e-01
1.765380206343140912e-01
1.765380206343140912e-01
1.784486052732136008e-01
1.784486052732136008e-01
1.677493312953763915e-01
1.677493312953763915e-01
1.677493312953763915e-01
1.776843714176538080e-01
1.776843714176538080e-01
1.669850974398165711e-01
1.669850974398165711e-01
1.669850974398165711e-01
1.650745128009170892e-01
1.650745128009170892e-01
1.746274359954146094e-01
1.746274359954146094e-01
1.746274359954146094e-01
1.581964081008788714e-01
1.581964081008788714e-01
1.753916698509744021e-01
1.753916698509744021e-01
1.753916698509744021e-01
1.524646541841803704e-01
1.524646541841803704e-01
1.505540695452808608e-01
1.505540695452808608e-01
1.505540695452808608e-01
1.566679403897592582e-01
1.566679403897592582e-01
1.708062667176155902e-01
1.708062667176155902e-01
1.708062667176155902e-01
1.719526175009552793e-01
1.719526175009552793e-01
1.532288880397401631e-01
1.532288880397401631e-01
1.532288880397401631e-01
1.608712265953381737e-01
1.608712265953381737e-01
1.738632021398547889e-01
1.738632021398547889e-01
1.738632021398547889e-01
1.524646541841803704e-01
1.524646541841803704e-01
1.593427588842185605e-01
1.593427588842185605e-01
1.593427588842185605e-01
1.601069927397783810e-01
1.601069927397783810e-01
1.467329002674818417e-01
1.467329002674818417e-01
1.467329002674818417e-01
1.474971341230416622e-01
1.474971341230416622e-01
1.471150171952617380e-01
1.471150171952617380e-01
1.471150171952617380e-01
1.654566297286969856e-01
1.654566297286969856e-01
1.616354604508979664e-01
1.616354604508979664e-01
1.616354604508979664e-01
1.543752388230798522e-01
1.543752388230798522e-01
1.490256018341612476e-01
1.490256018341612476e-01
1.490256018341612476e-01
1.497898356897210681e-01
1.497898356897210681e-01
1.444401987008024357e-01
1.444401987008024357e-01
1.444401987008024357e-01
1.627818112342376833e-01
1.627818112342376833e-01
1.532288880397401631e-01
1.532288880397401631e-01
1.562858234619793618e-01
1.562858234619793618e-01
1.562858234619793618e-01
1.589606419564386641e-01
1.589606419564386641e-01
1.578142911730989750e-01
1.578142911730989750e-01
1.578142911730989750e-01
1.383263278563240384e-01
1.383263278563240384e-01
1.448223156285823598e-01
1.448223156285823598e-01
1.448223156285823598e-01
1.501719526175009645e-01
1.501719526175009645e-01
1.387084447841039347e-01
1.387084447841039347e-01
1.387084447841039347e-01
1.356515093618647361e-01
1.356515093618647361e-01
1.559037065341994654e-01
1.559037065341994654e-01
1.559037065341994654e-01
1.513183034008406536e-01
1.513183034008406536e-01
1.524646541841803704e-01
1.524646541841803704e-01
1.524646541841803704e-01
1.379442109285441420e-01
1.379442109285441420e-01
1.539931218952999559e-01
1.539931218952999559e-01
1.539931218952999559e-01
1.474971341230416622e-01
1.474971341230416622e-01
1.471150171952617380e-01
1.471150171952617380e-01
1.471150171952617380e-01
1.364157432174245288e-01
1.364157432174245288e-01
1.471150171952617380e-01
1.471150171952617380e-01
1.471150171952617380e-01
1.455865494841421526e-01
1.455865494841421526e-01
1.539931218952999559e-01
1.539931218952999559e-01
1.539931218952999559e-01
1.383263278563240384e-01
1.383263278563240384e-01
1.520825372564004463e-01
1.520825372564004463e-01
1.520825372564004463e-01
1.494077187619411440e-01
1.494077187619411440e-01
1.425296140619029539e-01
1.425296140619029539e-01
1.425296140619029539e-01
1.421474971341230298e-01
1.421474971341230298e-01
1.379442109285441420e-01
1.379442109285441420e-01
1.379442109285441420e-01
1.486434849063813513e-01
1.486434849063813513e-01
1.505540695452808608e-01
1.505540695452808608e-01
1.505540695452808608e-01
1.303018723729461315e-01
1.303018723729461315e-01
1.341230416507451229e-01
1.341230416507451229e-01
1.341230416507451229e-01
1.325945739396255374e-01
1.325945739396255374e-01
1.455865494841421526e-01
1.455865494841421526e-01
1.455865494841421526e-01
1.345051585785250192e-01
1.345051585785250192e-01
1.371799770729843215e-01
1.371799770729843215e-01
1.371799770729843215e-01
1.432938479174627466e-01
1.432938479174627466e-01
1.348872755063049156e-01
1.348872755063049156e-01
1.348872755063049156e-01
1.425296140619029539e-01
1.425296140619029539e-01
1.264807030951471123e-01
1.264807030951471123e-01
1.264807030951471123e-01
1.337409247229652265e-01
1.337409247229652265e-01
1.333588077951853301e-01
1.333588077951853301e-01
1.333588077951853301e-01
1.417653802063431334e-01
1.417653802063431334e-01
1.394726786396637275e-01
1.394726786396637275e-01
1.394726786396637275e-01
1.413832632785632371e-01
1.413832632785632371e-01
1.410011463507833407e-01
1.410011463507833407e-01
1.410011463507833407e-01
1.287734046618265182e-01
1.287734046618265182e-01
1.360336262896446324e-01
1.360336262896446324e-01
1.360336262896446324e-01
1.394726786396637275e-01
1.394726786396637275e-01
1.356515093618647361e-01
1.356515093618647361e-01
1.356515093618647361e-01
1.218952999617883004e-01
1.218952999617883004e-01
1.260985861673672159e-01
1.260985861673672159e-01
1.260985861673672159e-01
1.360336262896446324e-01
1.360336262896446324e-01
1.345051585785250192e-01
1.345051585785250192e-01
1.345051585785250192e-01
1.226595338173481070e-01
1.226595338173481070e-01
1.325945739396255374e-01
1.325945739396255374e-01
1.325945739396255374e-01
1.367978601452044252e-01
1.367978601452044252e-01
1.425296140619029539e-01
1.425296140619029539e-01
1.425296140619029539e-01
1.497898356897210681e-01
1.497898356897210681e-01
1.559037065341994654e-01
1.559037065341994654e-01
1.559037065341994654e-01
1.459686664119220489e-01
1.459686664119220489e-01
1.620175773786778628e-01
1.620175773786778628e-01
1.620175773786778628e-01
1.566679403897592582e-01
1.566679403897592582e-01
1.639281620175773724e-01
1.639281620175773724e-01
1.639281620175773724e-01
1.700420328620557975e-01
1.700420328620557975e-01
1.891478792510508100e-01
1.891478792510508100e-01
1.891478792510508100e-01
1.883836453954910173e-01
1.883836453954910173e-01
2.074894917844860576e-01
2.074894917844860576e-01
2.074894917844860576e-01
1.967902178066488483e-01
1.967902178066488483e-01
2.200993504012227764e-01
2.200993504012227764e-01
2.200993504012227764e-01
2.143675964845242754e-01
2.143675964845242754e-01
2.342376767290791084e-01
2.342376767290791084e-01
2.342376767290791084e-01
2.407336645013374021e-01
2.407336645013374021e-01
2.625143293847917447e-01
2.625143293847917447e-01
2.625143293847917447e-01
2.655712648070309712e-01
2.655712648070309712e-01
2.651891478792510748e-01
2.651891478792510748e-01
2.651891478792510748e-01
2.892625143293847678e-01
2.892625143293847678e-01
2.892625143293847678e-01
2.892625143293847678e-01
2.892625143293847678e-01
3.034008406572410999e-01
3.034008406572410999e-01
3.221245701184562438e-01
3.221245701184562438e-01
3.221245701184562438e-01
3.293847917462743857e-01
3.293847917462743857e-01
3.221245701184562438e-01
3.221245701184562438e-01
3.221245701184562438e-01
3.316774933129537639e-01
3.316774933129537639e-01
3.397019487963316986e-01
3.397019487963316986e-01
3.595720290408865316e-01
3.595720290408865316e-01
3.595720290408865316e-01
3.557508597630875125e-01
3.557508597630875125e-01
3.672143675964845144e-01
3.672143675964845144e-01
3.672143675964845144e-01
3.752388230798624491e-01
3.752388230798624491e-01
3.794421092854413646e-01
3.794421092854413646e-01
3.794421092854413646e-01
3.782957585021016200e-01
3.782957585021016200e-01
3.924340848299579521e-01
3.924340848299579521e-01
3.924340848299579521e-01
3.901413832632785739e-01
3.901413832632785739e-01
4.031333588077951613e-01
4.031333588077951613e-01
4.031333588077951613e-01
4.161253343523118042e-01
4.161253343523118042e-01
4.134505158578525297e-01
4.134505158578525297e-01
4.134505158578525297e-01
4.107756973633931996e-01
4.107756973633931996e-01
4.168895682078715970e-01
4.168895682078715970e-01
4.168895682078715970e-01
4.275888421857088062e-01
4.275888421857088062e-01
4.314100114635078254e-01
4.314100114635078254e-01
4.314100114635078254e-01
4.233855559801299462e-01
4.233855559801299462e-01
4.371417653802063263e-01
4.371417653802063263e-01
4.371417653802063263e-01
4.463125716469239501e-01
4.463125716469239501e-01
4.463125716469239501e-01
4.463125716469239501e-01
4.463125716469239501e-01
4.424914023691249310e-01
4.424914023691249310e-01
4.440198700802445719e-01
4.440198700802445719e-01
4.440198700802445719e-01
4.409629346580053455e-01
4.409629346580053455e-01
4.444019870080244683e-01
4.444019870080244683e-01
4.444019870080244683e-01
4.386702330913259673e-01
4.386702330913259673e-01
4.478410393580435356e-01
4.478410393580435356e-01
4.478410393580435356e-01
4.444019870080244683e-01
4.444019870080244683e-01
4.466946885747038465e-01
4.466946885747038465e-01
4.466946885747038465e-01
4.337027130301872591e-01
4.337027130301872591e-01
4.501337409247229693e-01
4.501337409247229693e-01
4.501337409247229693e-01
4.379059992357661191e-01
4.379059992357661191e-01
4.401987008024455528e-01
4.401987008024455528e-01
4.401987008024455528e-01
4.394344669468857600e-01
4.394344669468857600e-01
4.470768055024837428e-01
4.470768055024837428e-01
4.470768055024837428e-01
4.371417653802063263e-01
4.371417653802063263e-01
4.451662208635842610e-01
4.451662208635842610e-01
4.451662208635842610e-01
4.436377531524646756e-01
4.436377531524646756e-01
4.375238823079862227e-01
4.375238823079862227e-01
4.375238823079862227e-01
4.482231562858234875e-01
4.482231562858234875e-01
4.359954145968666372e-01
4.359954145968666372e-01
4.359954145968666372e-01
4.474589224302636392e-01
4.474589224302636392e-01
4.398165838746656564e-01
4.398165838746656564e-01
4.398165838746656564e-01
4.237676729079098426e-01
4.237676729079098426e-01
4.375238823079862227e-01
4.375238823079862227e-01
4.375238823079862227e-01
4.203286205578907198e-01
4.203286205578907198e-01
4.390523500191058637e-01
4.390523500191058637e-01
4.390523500191058637e-01
4.195643867023309270e-01
4.195643867023309270e-01
4.138326327856324260e-01
4.138326327856324260e-01
4.138326327856324260e-01
4.084829957967138214e-01
4.084829957967138214e-01
4.180359189912112861e-01
4.180359189912112861e-01
4.180359189912112861e-01
4.130683989300725778e-01
4.130683989300725778e-01
4.054260603744745950e-01
4.054260603744745950e-01
4.054260603744745950e-01
4.023691249522353686e-01
4.023691249522353686e-01
4.092472296522736142e-01
4.092472296522736142e-01
4.092472296522736142e-01
4.012227741688956795e-01
4.012227741688956795e-01
4.012227741688956795e-01
4.012227741688956795e-01
4.012227741688956795e-01
3.878486816965991402e-01
3.878486816965991402e-01
3.870844478410393474e-01
3.870844478410393474e-01
3.870844478410393474e-01
3.985479556744364049e-01
3.985479556744364049e-01
3.752388230798624491e-01
3.752388230798624491e-01
3.752388230798624491e-01
3.813526939243408465e-01
3.813526939243408465e-01
3.870844478410393474e-01
3.870844478410393474e-01
3.870844478410393474e-01
3.710355368742835336e-01
3.710355368742835336e-01
3.675964845242644108e-01
3.675964845242644108e-01
3.675964845242644108e-01
3.630110813909055989e-01
3.630110813909055989e-01
3.737103553687428081e-01
3.737103553687428081e-01
3.737103553687428081e-01
3.492548719908292187e-01
3.492548719908292187e-01
3.561329766908674088e-01
3.561329766908674088e-01
3.561329766908674088e-01
3.450515857852503032e-01
3.450515857852503032e-01
3.339701948796331421e-01
3.339701948796331421e-01
3.339701948796331421e-01
3.519296904852884933e-01
3.519296904852884933e-01
3.450515857852503032e-01
3.450515857852503032e-01
3.450515857852503032e-01
3.263278563240351593e-01
3.263278563240351593e-01
3.179212839128773282e-01
3.179212839128773282e-01
3.179212839128773282e-01
3.309132594573939712e-01
3.309132594573939712e-01
3.110431792128391382e-01
3.110431792128391382e-01
3.110431792128391382e-01
3.309132594573939712e-01
3.309132594573939712e-01
3.183034008406572246e-01
3.183034008406572246e-01
3.183034008406572246e-01
3.110431792128391382e-01
3.110431792128391382e-01
2.991975544516621843e-01
2.991975544516621843e-01
2.991975544516621843e-01
2.949942682460833243e-01
2.949942682460833243e-01
3.014902560183416180e-01
3.014902560183416180e-01
3.014902560183416180e-01
2.904088651127245124e-01
2.904088651127245124e-01
2.865876958349254933e-01
2.865876958349254933e-01
2.946121513183034279e-01
2.946121513183034279e-01
2.946121513183034279e-01
2.919373328238440979e-01
2.919373328238440979e-01
2.854413450515858042e-01
2.854413450515858042e-01
2.854413450515858042e-01
2.808559419182269923e-01
2.808559419182269923e-01
2.697745510126098312e-01
2.697745510126098312e-01
2.697745510126098312e-01
2.823844096293465777e-01
2.823844096293465777e-01
2.659533817348108675e-01
2.659533817348108675e-01
2.659533817348108675e-01
2.571646923958731401e-01
2.571646923958731401e-01
2.632785632403515375e-01
2.632785632403515375e-01
2.632785632403515375e-01
2.495223538402751295e-01
2.495223538402751295e-01
2.609858616736721593e-01
2.609858616736721593e-01
2.609858616736721593e-01
2.564004585403133474e-01
2.564004585403133474e-01
2.567825754680932437e-01
2.567825754680932437e-01
2.567825754680932437e-01
2.411157814291172985e-01
2.411157814291172985e-01
2.502865876958349500e-01
2.502865876958349500e-01
2.502865876958349500e-01
2.556362246847535546e-01
2.556362246847535546e-01
2.376767290790982035e-01
2.376767290790982035e-01
2.376767290790982035e-01
2.369124952235384107e-01
2.369124952235384107e-01
2.361482613679785902e-01
2.361482613679785902e-01
2.361482613679785902e-01
2.414978983568972226e-01
2.414978983568972226e-01
2.277416889568207869e-01
2.277416889568207869e-01
2.277416889568207869e-01
2.392051967902178167e-01
2.392051967902178167e-01
2.315628582346198061e-01
2.315628582346198061e-01
2.315628582346198061e-01
2.330913259457393916e-01
2.330913259457393916e-01
2.200993504012227764e-01
2.200993504012227764e-01
2.200993504012227764e-01
2.357661444401986939e-01
2.357661444401986939e-01
2.223920519679021823e-01
2.223920519679021823e-01
2.223920519679021823e-01
2.158960641956438609e-01
2.158960641956438609e-01
2.212457011845624655e-01
2.212457011845624655e-01
2.212457011845624655e-01
2.258311043179212774e-01
2.258311043179212774e-01
2.273595720290408906e-01
2.273595720290408906e-01
2.273595720290408906e-01
2.208635842567825691e-01
2.208635842567825691e-01
2.277416889568207869e-01
2.277416889568207869e-01
2.277416889568207869e-01
2.220099350401222860e-01
2.220099350401222860e-01
2.189529996178830595e-01
2.189529996178830595e-01
2.189529996178830595e-01
2.132212457011845586e-01
2.132212457011845586e-01
2.109285441345051526e-01
2.109285441345051526e-01
2.109285441345051526e-01
2.181887657623232668e-01
2.181887657623232668e-01
2.200993504012227764e-01
2.200993504012227764e-01
2.200993504012227764e-01
2.143675964845242754e-01
2.143675964845242754e-01
2.097821933511654635e-01
2.097821933511654635e-01
2.097821933511654635e-01
2.017577378677875566e-01
2.017577378677875566e-01
2.090179594956056430e-01
2.090179594956056430e-01
2.090179594956056430e-01
1.964081008788689242e-01
1.964081008788689242e-01
2.071073748567061612e-01
2.071073748567061612e-01
2.071073748567061612e-01
1.975544516622086411e-01
1.975544516622086411e-01
1.944975162399694424e-01
1.944975162399694424e-01
1.944975162399694424e-01
1.944975162399694424e-01
1.944975162399694424e-01
2.009935040122277361e-01
2.009935040122277361e-01
2.009935040122277361e-01
2.113106610622850490e-01
2.113106610622850490e-01
2.002292701566679434e-01
2.002292701566679434e-01
2.002292701566679434e-01
2.040504394344669348e-01
2.040504394344669348e-01
2.059610240733664444e-01
2.059610240733664444e-01
2.059610240733664444e-01
1.902942300343905269e-01
1.902942300343905269e-01
1.883836453954910173e-01
1.883836453954910173e-01
1.883836453954910173e-01
2.017577378677875566e-01
2.017577378677875566e-01
1.891478792510508100e-01
1.891478792510508100e-01
1.891478792510508100e-01
2.006113870844478397e-01
2.006113870844478397e-01
1.994650363011081506e-01
1.994650363011081506e-01
1.994650363011081506e-01
1.922048146732900364e-01
1.922048146732900364e-01
1.975544516622086411e-01
1.975544516622086411e-01
1.975544516622086411e-01
1.937332823844096219e-01
1.937332823844096219e-01
1.788307222009934971e-01
1.788307222009934971e-01
1.788307222009934971e-01
1.757737867787542985e-01
1.757737867787542985e-01
1.830340084065724127e-01
1.830340084065724127e-01
1.830340084065724127e-01
1.887657623232709136e-01
1.887657623232709136e-01
1.910584638899503196e-01
1.910584638899503196e-01
1.910584638899503196e-01
1.784486052732136008e-01
1.784486052732136008e-01
1.887657623232709136e-01
1.887657623232709136e-01
1.887657623232709136e-01
1.864730607565915077e-01
1.864730607565915077e-01
1.738632021398547889e-01
1.738632021398547889e-01
1.738632021398547889e-01
1.773022544898739117e-01
1.773022544898739117e-01
1.841803591899121018e-01
1.841803591899121018e-01
1.841803591899121018e-01
1.719526175009552793e-01
1.719526175009552793e-01
1.860909438288116113e-01
1.860909438288116113e-01
1.860909438288116113e-01
1.830340084065724127e-01
1.830340084065724127e-01
1.669850974398165711e-01
1.669850974398165711e-01
1.669850974398165711e-01
1.730989682842949962e-01
1.730989682842949962e-01
1.654566297286969856e-01
1.654566297286969856e-01
1.654566297286969856e-01
1.826518914787925163e-01
1.826518914787925163e-01
1.654566297286969856e-01
1.654566297286969856e-01
1.593427588842185605e-01
1.593427588842185605e-01
1.593427588842185605e-01
1.807413068398930067e-01
1.807413068398930067e-01
1.585785250286587678e-01
1.585785250286587678e-01
1.585785250286587678e-01
1.673672143675964952e-01
1.673672143675964952e-01
1.654566297286969856e-01
1.654566297286969856e-01
1.654566297286969856e-01
1.547573557508597764e-01
1.547573557508597764e-01
1.574321742453190787e-01
1.574321742453190787e-01
1.574321742453190787e-01
1.669850974398165711e-01
1.669850974398165711e-01
1.539931218952999559e-01
1.539931218952999559e-01
1.539931218952999559e-01
1.559037065341994654e-01
1.559037065341994654e-01
1.528467711119602668e-01
1.528467711119602668e-01
1.528467711119602668e-01
1.608712265953381737e-01
1.608712265953381737e-01
1.715705005731753829e-01
1.715705005731753829e-01
1.715705005731753829e-01
1.482613679786014549e-01
1.482613679786014549e-01
1.608712265953381737e-01
1.608712265953381737e-01
1.608712265953381737e-01
1.425296140619029539e-01
1.425296140619029539e-01
1.620175773786778628e-01
1.620175773786778628e-01
1.620175773786778628e-01
1.467329002674818417e-01
1.467329002674818417e-01
1.608712265953381737e-01
1.608712265953381737e-01
1.608712265953381737e-01
1.608712265953381737e-01
1.608712265953381737e-01
1.520825372564004463e-01
1.520825372564004463e-01
1.520825372564004463e-01
1.402369124952235480e-01
1.402369124952235480e-01
1.543752388230798522e-01
1.543752388230798522e-01
1.543752388230798522e-01
1.398547955674436516e-01
1.398547955674436516e-01
1.471150171952617380e-01
1.471150171952617380e-01
1.471150171952617380e-01
1.509361864730607572e-01
1.509361864730607572e-01
1.459686664119220489e-01
1.459686664119220489e-01
1.459686664119220489e-01
1.532288880397401631e-01
1.532288880397401631e-01
1.517004203286205499e-01
1.517004203286205499e-01
1.517004203286205499e-01
1.375620940007642456e-01
1.375620940007642456e-01
1.532288880397401631e-01
1.532288880397401631e-01
1.532288880397401631e-01
1.303018723729461315e-01
1.303018723729461315e-01
1.394726786396637275e-01
1.394726786396637275e-01
1.394726786396637275e-01
1.341230416507451229e-01
1.341230416507451229e-01
1.283912877340466219e-01
1.283912877340466219e-01
1.283912877340466219e-01
1.337409247229652265e-01
1.337409247229652265e-01
1.379442109285441420e-01
1.379442109285441420e-01
1.379442109285441420e-01
1.352693924340848397e-01
1.352693924340848397e-01
1.280091708062667255e-01
1.280091708062667255e-01
1.280091708062667255e-01
1.467329002674818417e-01
1.467329002674818417e-01
1.448223156285823598e-01
1.448223156285823598e-01
1.448223156285823598e-01
1.356515093618647361e-01
1.356515093618647361e-01
1.402369124952235480e-01
1.402369124952235480e-01
1.402369124952235480e-01
1.230416507451280034e-01
1.230416507451280034e-01
1.215131830340084040e-01
1.215131830340084040e-01
1.215131830340084040e-01
1.322124570118456133e-01
1.322124570118456133e-01
1.410011463507833407e-01
1.410011463507833407e-01
1.410011463507833407e-01
1.367978601452044252e-01
1.367978601452044252e-01
1.303018723729461315e-01
1.303018723729461315e-01
1.303018723729461315e-01
1.303018723729461315e-01
1.303018723729461315e-01
1.272449369507069050e-01
1.272449369507069050e-01
1.272449369507069050e-01
1.306839893007260278e-01
1.306839893007260278e-01
1.314482231562858205e-01
1.314482231562858205e-01
1.314482231562858205e-01
1.322124570118456133e-01
1.322124570118456133e-01
1.215131830340084040e-01
1.215131830340084040e-01
1.215131830340084040e-01
1.314482231562858205e-01
1.314482231562858205e-01
1.199847153228888047e-01
1.199847153228888047e-01
1.199847153228888047e-01
1.364157432174245288e-01
1.364157432174245288e-01
1.360336262896446324e-01
1.360336262896446324e-01
1.360336262896446324e-01
1.241880015284677063e-01
1.241880015284677063e-01
1.234237676729079136e-01
1.234237676729079136e-01
1.234237676729079136e-01
1.215131830340084040e-01
1.215131830340084040e-01
1.348872755063049156e-01
1.348872755063049156e-01
1.348872755063049156e-01
1.345051585785250192e-01
1.345051585785250192e-01
1.352693924340848397e-01
1.352693924340848397e-01
1.352693924340848397e-01
1.234237676729079136e-01
1.234237676729079136e-01
1.241880015284677063e-01
1.241880015284677063e-01
1.241880015284677063e-01
1.215131830340084040e-01
1.215131830340084040e-01
1.295376385173863110e-01
1.295376385173863110e-01
1.295376385173863110e-01
1.215131830340084040e-01
1.215131830340084040e-01
1.245701184562476166e-01
1.245701184562476166e-01
1.245701184562476166e-01
1.153993121895299928e-01
1.153993121895299928e-01
1.165456629728696958e-01
1.165456629728696958e-01
1.165456629728696958e-01
1.196025983951089083e-01
1.196025983951089083e-01
1.241880015284677063e-01
1.241880015284677063e-01
1.241880015284677063e-01
1.264807030951471123e-01
1.264807030951471123e-01
1.119602598395108839e-01
1.119602598395108839e-01
1.119602598395108839e-01
1.222774168895682106e-01
1.222774168895682106e-01
1.238058846006878100e-01
1.238058846006878100e-01
1.238058846006878100e-01
1.150171952617500964e-01
1.150171952617500964e-01
1.272449369507069050e-01
1.272449369507069050e-01
1.272449369507069050e-01
1.287734046618265182e-01
1.287734046618265182e-01
1.058463889950324865e-01
1.058463889950324865e-01
1.127244936950706905e-01
1.127244936950706905e-01
1.127244936950706905e-01
1.303018723729461315e-01
1.303018723729461315e-01
1.066106228505922793e-01
1.066106228505922793e-01
1.066106228505922793e-01
1.092854413450515816e-01
1.092854413450515816e-01
1.039358043561329770e-01
1.039358043561329770e-01
1.039358043561329770e-01
1.104317921283912846e-01
1.104317921283912846e-01
1.062285059228123829e-01
1.062285059228123829e-01
1.062285059228123829e-01
1.226595338173481070e-01
1.226595338173481070e-01
1.153993121895299928e-01
1.153993121895299928e-01
1.153993121895299928e-01
1.104317921283912846e-01
1.104317921283912846e-01
1.150171952617500964e-01
1.150171952617500964e-01
1.150171952617500964e-01
1.069927397783721756e-01
1.069927397783721756e-01
1.211310661062285077e-01
1.211310661062285077e-01
1.211310661062285077e-01
1.119602598395108839e-01
1.119602598395108839e-01
1.092854413450515816e-01
1.092854413450515816e-01
1.092854413450515816e-01
1.127244936950706905e-01
1.127244936950706905e-01
1.306839893007260278e-01
1.306839893007260278e-01
1.306839893007260278e-01
1.345051585785250192e-01
1.345051585785250192e-01
1.299197554451662073e-01
1.299197554451662073e-01
1.299197554451662073e-01
1.394726786396637275e-01
1.394726786396637275e-01
1.497898356897210681e-01
1.497898356897210681e-01
1.497898356897210681e-01
1.528467711119602668e-01
1.528467711119602668e-01
1.616354604508979664e-01
1.616354604508979664e-01
1.616354604508979664e-01
1.704241497898356938e-01
1.704241497898356938e-01
1.761559037065341948e-01
1.761559037065341948e-01
1.761559037065341948e-01
1.811234237676729031e-01
1.811234237676729031e-01
1.811234237676729031e-01
1.811234237676729031e-01
1.811234237676729031e-01
2.002292701566679434e-01
2.002292701566679434e-01
1.987008024455483302e-01
1.987008024455483302e-01
1.987008024455483302e-01
2.174245319067634741e-01
2.174245319067634741e-01
2.273595720290408906e-01
2.273595720290408906e-01
2.273595720290408906e-01
2.426442491402369117e-01
2.426442491402369117e-01
2.388230798624378926e-01
2.388230798624378926e-01
2.388230798624378926e-01
2.426442491402369117e-01
2.426442491402369117e-01
2.732136033626289540e-01
2.732136033626289540e-01
2.732136033626289540e-01
2.625143293847917447e-01
2.625143293847917447e-01
2.877340466182651824e-01
2.877340466182651824e-01
2.877340466182651824e-01
2.988154375238822880e-01
2.988154375238822880e-01
2.999617883072220326e-01
2.999617883072220326e-01
2.999617883072220326e-01
3.072220099350401190e-01
3.072220099350401190e-01
3.087504776461597045e-01
3.087504776461597045e-01
3.087504776461597045e-01
3.270920901795949520e-01
3.270920901795949520e-01
3.419946503630110768e-01
3.419946503630110768e-01
3.419946503630110768e-01
3.335880779518532457e-01
3.335880779518532457e-01
3.488727550630492669e-01
3.488727550630492669e-01
3.488727550630492669e-01
3.496369889186091151e-01
3.496369889186091151e-01
3.641574321742453435e-01
3.641574321742453435e-01
3.641574321742453435e-01
3.752388230798624491e-01
3.752388230798624491e-01
3.760030569354222418e-01
3.760030569354222418e-01
3.760030569354222418e-01
3.779136415743217237e-01
3.779136415743217237e-01
3.782957585021016200e-01
3.782957585021016200e-01
3.782957585021016200e-01
3.867023309132594511e-01
3.867023309132594511e-01
3.882307986243790365e-01
3.882307986243790365e-01
3.882307986243790365e-01
3.912877340466182630e-01
3.912877340466182630e-01
3.974016048910966603e-01
3.974016048910966603e-01
3.974016048910966603e-01
3.947267863966373858e-01
3.947267863966373858e-01
4.195643867023309270e-01
4.195643867023309270e-01
4.195643867023309270e-01
4.054260603744745950e-01
4.054260603744745950e-01
4.038975926633550095e-01
4.038975926633550095e-01
4.038975926633550095e-01
4.077187619411539732e-01
4.077187619411539732e-01
4.191822697745510307e-01
4.191822697745510307e-01
4.191822697745510307e-01
4.272067252579289098e-01
4.272067252579289098e-01
4.222392051967902016e-01
4.222392051967902016e-01
4.222392051967902016e-01
4.256782575468093244e-01
4.256782575468093244e-01
4.176538020634313897e-01
4.176538020634313897e-01
4.176538020634313897e-01
4.348490638135269482e-01
4.348490638135269482e-01
4.172716851356514933e-01
4.172716851356514933e-01
4.172716851356514933e-01
4.260603744745892207e-01
4.260603744745892207e-01
4.275888421857088062e-01
4.275888421857088062e-01
4.275888421857088062e-01
4.180359189912112861e-01
4.180359189912112861e-01
4.314100114635078254e-01
4.314100114635078254e-01
4.314100114635078254e-01
4.165074512800917006e-01
4.165074512800917006e-01
4.275888421857088062e-01
4.275888421857088062e-01
4.275888421857088062e-01
4.172716851356514933e-01
4.172716851356514933e-01
4.310278945357279290e-01
4.310278945357279290e-01
4.310278945357279290e-01
4.264424914023691171e-01
4.264424914023691171e-01
4.149789835689721151e-01
4.149789835689721151e-01
4.149789835689721151e-01
4.031333588077951613e-01
4.031333588077951613e-01
4.103935804356133032e-01
4.103935804356133032e-01
4.103935804356133032e-01
4.054260603744745950e-01
4.054260603744745950e-01
4.165074512800917006e-01
4.165074512800917006e-01
4.081008788689338695e-01
4.081008788689338695e-01
4.081008788689338695e-01
4.123041650745127851e-01
4.123041650745127851e-01
3.947267863966373858e-01
3.947267863966373858e-01
3.947267863966373858e-01
4.016048910966755758e-01
4.016048910966755758e-01
3.935804356132976967e-01
3.935804356132976967e-01
3.935804356132976967e-01
3.889950324799388848e-01
3.889950324799388848e-01
4.023691249522353686e-01
4.023691249522353686e-01
4.023691249522353686e-01
3.786778754298815164e-01
3.786778754298815164e-01
3.889950324799388848e-01
3.889950324799388848e-01
3.889950324799388848e-01
3.870844478410393474e-01
3.870844478410393474e-01
3.844096293465800729e-01
3.844096293465800729e-01
3.844096293465800729e-01
3.698891860909438445e-01
3.698891860909438445e-01
3.744745892243026564e-01
3.744745892243026564e-01
3.744745892243026564e-01
3.614826136797860134e-01
3.614826136797860134e-01
3.538402751241879751e-01
3.538402751241879751e-01
3.538402751241879751e-01
3.668322506687046181e-01
3.668322506687046181e-01
3.710355368742835336e-01
3.710355368742835336e-01
3.710355368742835336e-01
3.465800534963698887e-01
3.465800534963698887e-01
3.477264042797095778e-01
3.477264042797095778e-01
3.477264042797095778e-01
3.588077951853266834e-01
3.588077951853266834e-01
3.458158196408100959e-01
3.458158196408100959e-01
3.458158196408100959e-01
3.381734810852120576e-01
3.381734810852120576e-01
3.488727550630492669e-01
3.488727550630492669e-01
3.488727550630492669e-01
3.351165456629728867e-01
3.351165456629728867e-01
3.209782193351165547e-01
3.209782193351165547e-01
3.209782193351165547e-01
3.183034008406572246e-01
3.183034008406572246e-01
3.121895299961788273e-01
3.121895299961788273e-01
3.121895299961788273e-01
3.160106992739778464e-01
3.160106992739778464e-01
3.118074130683989309e-01
3.118074130683989309e-01
3.118074130683989309e-01
2.969048528849828061e-01
2.969048528849828061e-01
3.121895299961788273e-01
3.121895299961788273e-01
3.121895299961788273e-01
2.991975544516621843e-01
2.991975544516621843e-01
2.900267481849446161e-01
2.900267481849446161e-01
2.900267481849446161e-01
2.907909820405044088e-01
2.907909820405044088e-01
2.850592281238059078e-01
2.850592281238059078e-01
2.850592281238059078e-01
2.957585021016431170e-01
2.957585021016431170e-01
2.904088651127245124e-01
2.904088651127245124e-01
2.904088651127245124e-01
2.724493695070691612e-01
2.724493695070691612e-01
2.839128773404661632e-01
2.839128773404661632e-01
2.839128773404661632e-01
2.743599541459686431e-01
2.743599541459686431e-01
2.762705387848681804e-01
2.762705387848681804e-01
2.762705387848681804e-01
2.667176155903706603e-01
2.667176155903706603e-01
2.606037447458922629e-01
2.606037447458922629e-01
2.606037447458922629e-01
2.514329384791746391e-01
2.514329384791746391e-01
2.648070309514711229e-01
2.648070309514711229e-01
2.648070309514711229e-01
2.506687046236148464e-01
2.506687046236148464e-01
2.468475353458158272e-01
2.468475353458158272e-01
2.468475353458158272e-01
2.525792892625143282e-01
2.525792892625143282e-01
2.472296522735957236e-01
2.472296522735957236e-01
2.472296522735957236e-01
2.357661444401986939e-01
2.357661444401986939e-01
2.445548337791364213e-01
2.445548337791364213e-01
2.445548337791364213e-01
2.403515475735575058e-01
2.403515475735575058e-01
2.311807413068398820e-01
2.311807413068398820e-01
2.311807413068398820e-01
2.449369507069163177e-01
2.449369507069163177e-01
2.265953381734810979e-01
2.265953381734810979e-01
2.265953381734810979e-01
2.426442491402369117e-01
2.426442491402369117e-01
2.441727168513565249e-01
2.441727168513565249e-01
2.441727168513565249e-01
2.426442491402369117e-01
2.426442491402369117e-01
2.273595720290408906e-01
2.273595720290408906e-01
2.273595720290408906e-01
2.231562858234619751e-01
2.231562858234619751e-01
2.212457011845624655e-01
2.212457011845624655e-01
2.212457011845624655e-01
2.136033626289644549e-01
2.136033626289644549e-01
2.212457011845624655e-01
2.212457011845624655e-01
2.212457011845624655e-01
2.281238058846006833e-01
2.281238058846006833e-01
2.220099350401222860e-01
2.220099350401222860e-01
2.220099350401222860e-01
2.158960641956438609e-01
2.158960641956438609e-01
2.254489873901413810e-01
2.254489873901413810e-01
2.254489873901413810e-01
2.113106610622850490e-01
2.113106610622850490e-01
2.143675964845242754e-01
2.143675964845242754e-01
2.143675964845242754e-01
2.139854795567443513e-01
2.139854795567443513e-01
2.136033626289644549e-01
2.136033626289644549e-01
2.136033626289644549e-01
2.105464272067252562e-01
2.105464272067252562e-01
2.204814673290026728e-01
2.204814673290026728e-01
2.204814673290026728e-01
2.036683225066870384e-01
2.036683225066870384e-01
2.059610240733664444e-01
2.059610240733664444e-01
2.059610240733664444e-01
2.162781811234237572e-01
2.162781811234237572e-01
1.960259839510890278e-01
1.960259839510890278e-01
1.960259839510890278e-01
2.101643102789453599e-01
2.101643102789453599e-01
2.021398547955674529e-01
2.021398547955674529e-01
2.021398547955674529e-01
2.109285441345051526e-01
2.109285441345051526e-01
2.017577378677875566e-01
2.017577378677875566e-01
1.952617500955292351e-01
1.952617500955292351e-01
1.952617500955292351e-01
2.094000764233855671e-01
2.094000764233855671e-01
2.029040886511272457e-01
2.029040886511272457e-01
2.029040886511272457e-01
1.960259839510890278e-01
1.960259839510890278e-01
1.910584638899503196e-01
1.910584638899503196e-01
1.910584638899503196e-01
1.925869316010699328e-01
1.925869316010699328e-01
1.845624761176920259e-01
1.845624761176920259e-01
1.845624761176920259e-01
2.040504394344669348e-01
2.040504394344669348e-01
1.860909438288116113e-01
1.860909438288116113e-01
1.860909438288116113e-01
1.853267099732518186e-01
1.853267099732518186e-01
1.895299961788307341e-01
1.895299961788307341e-01
1.895299961788307341e-01
1.944975162399694424e-01
1.944975162399694424e-01
1.853267099732518186e-01
1.853267099732518186e-01
1.853267099732518186e-01
2.009935040122277361e-01
2.009935040122277361e-01
1.918226977455101123e-01
1.918226977455101123e-01
1.918226977455101123e-01
1.868551776843714041e-01
1.868551776843714041e-01
1.895299961788307341e-01
1.895299961788307341e-01
1.895299961788307341e-01
1.780664883454337044e-01
1.780664883454337044e-01
1.780664883454337044e-01
1.780664883454337044e-01
1.780664883454337044e-01
1.841803591899121018e-01
1.841803591899121018e-01
1.906763469621704232e-01
1.906763469621704232e-01
1.906763469621704232e-01
1.849445930454719222e-01
1.849445930454719222e-01
1.902942300343905269e-01
1.902942300343905269e-01
1.902942300343905269e-01
1.788307222009934971e-01
1.788307222009934971e-01
1.872372946121513282e-01
1.872372946121513282e-01
1.872372946121513282e-01
1.902942300343905269e-01
1.902942300343905269e-01
1.822697745510126199e-01
1.822697745510126199e-01
1.822697745510126199e-01
1.776843714176538080e-01
1.776843714176538080e-01
1.822697745510126199e-01
1.822697745510126199e-01
1.822697745510126199e-01
1.914405808177302160e-01
1.914405808177302160e-01
1.880015284677111209e-01
1.880015284677111209e-01
1.880015284677111209e-01
1.811234237676729031e-01
1.811234237676729031e-01
1.815055406954527994e-01
1.815055406954527994e-01
1.815055406954527994e-01
1.757737867787542985e-01
1.757737867787542985e-01
1.872372946121513282e-01
1.872372946121513282e-01
1.872372946121513282e-01
1.669850974398165711e-01
1.669850974398165711e-01
1.700420328620557975e-01
1.700420328620557975e-01
1.700420328620557975e-01
1.811234237676729031e-01
1.811234237676729031e-01
1.780664883454337044e-01
1.780664883454337044e-01
1.780664883454337044e-01
1.761559037065341948e-01
1.761559037065341948e-01
1.688956820787160806e-01
1.688956820787160806e-01
1.688956820787160806e-01
1.868551776843714041e-01
1.868551776843714041e-01
1.715705005731753829e-01
1.715705005731753829e-01
1.715705005731753829e-01
1.639281620175773724e-01
1.639281620175773724e-01
1.654566297286969856e-01
1.654566297286969856e-01
1.654566297286969856e-01
1.742453190676346853e-01
1.742453190676346853e-01
1.769201375620939876e-01
1.769201375620939876e-01
1.769201375620939876e-01
1.608712265953381737e-01
1.608712265953381737e-01
1.734810852120748925e-01
1.734810852120748925e-01
1.734810852120748925e-01
1.723347344287352034e-01
1.723347344287352034e-01
1.734810852120748925e-01
1.734810852120748925e-01
1.734810852120748925e-01
1.677493312953763915e-01
1.677493312953763915e-01
1.635460450897974760e-01
1.635460450897974760e-01
1.635460450897974760e-01
1.562858234619793618e-01
1.562858234619793618e-01
1.677493312953763915e-01
1.677493312953763915e-01
1.677493312953763915e-01
1.517004203286205499e-01
1.517004203286205499e-01
1.616354604508979664e-01
1.616354604508979664e-01
1.616354604508979664e-01
1.574321742453190787e-01
1.574321742453190787e-01
1.467329002674818417e-01
1.467329002674818417e-01
1.467329002674818417e-01
1.612533435231180701e-01
1.612533435231180701e-01
1.616354604508979664e-01
1.616354604508979664e-01
1.616354604508979664e-01
1.436759648452426430e-01
1.436759648452426430e-01
1.643102789453572687e-01
1.643102789453572687e-01
1.643102789453572687e-01
1.421474971341230298e-01
1.421474971341230298e-01
1.505540695452808608e-01
1.505540695452808608e-01
1.505540695452808608e-01
1.581964081008788714e-01
1.581964081008788714e-01
1.536110049675200595e-01
1.536110049675200595e-01
1.536110049675200595e-01
1.417653802063431334e-01
1.417653802063431334e-01
1.513183034008406536e-01
1.513183034008406536e-01
1.513183034008406536e-01
1.410011463507833407e-01
1.410011463507833407e-01
1.547573557508597764e-01
1.547573557508597764e-01
1.547573557508597764e-01
1.410011463507833407e-01
1.410011463507833407e-01
1.593427588842185605e-01
1.593427588842185605e-01
1.593427588842185605e-01
1.364157432174245288e-01
1.364157432174245288e-01
1.604891096675582773e-01
1.604891096675582773e-01
1.604891096675582773e-01
1.482613679786014549e-01
1.482613679786014549e-01
1.593427588842185605e-01
1.593427588842185605e-01
1.593427588842185605e-01
1.444401987008024357e-01
1.444401987008024357e-01
1.478792510508215585e-01
1.478792510508215585e-01
1.478792510508215585e-01
1.394726786396637275e-01
1.394726786396637275e-01
1.471150171952617380e-01
1.471150171952617380e-01
1.471150171952617380e-01
1.494077187619411440e-01
1.494077187619411440e-01
1.570500573175391545e-01
1.570500573175391545e-01
1.517004203286205499e-01
1.517004203286205499e-01
1.517004203286205499e-01
1.517004203286205499e-01
1.517004203286205499e-01
1.543752388230798522e-01
1.543752388230798522e-01
1.543752388230798522e-01
1.390905617118838311e-01
1.390905617118838311e-01
1.421474971341230298e-01
1.421474971341230298e-01
1.421474971341230298e-01
1.566679403897592582e-01
1.566679403897592582e-01
1.448223156285823598e-01
1.448223156285823598e-01
1.448223156285823598e-01
1.410011463507833407e-01
1.410011463507833407e-01
1.551394726786396727e-01
1.551394726786396727e-01
1.551394726786396727e-01
1.444401987008024357e-01
1.444401987008024357e-01
1.597248758119984846e-01
1.597248758119984846e-01
1.597248758119984846e-01
1.436759648452426430e-01
1.436759648452426430e-01
1.497898356897210681e-01
1.497898356897210681e-01
1.497898356897210681e-01
1.494077187619411440e-01
1.494077187619411440e-01
1.635460450897974760e-01
1.635460450897974760e-01
1.635460450897974760e-01
1.436759648452426430e-01
1.436759648452426430e-01
1.448223156285823598e-01
1.448223156285823598e-01
1.448223156285823598e-01
1.455865494841421526e-01
1.455865494841421526e-01
1.593427588842185605e-01
1.593427588842185605e-01
1.593427588842185605e-01
1.639281620175773724e-01
1.639281620175773724e-01
1.578142911730989750e-01
1.578142911730989750e-01
1.578142911730989750e-01
1.520825372564004463e-01
1.520825372564004463e-01
1.532288880397401631e-01
1.532288880397401631e-01
1.532288880397401631e-01
1.589606419564386641e-01
1.589606419564386641e-01
1.532288880397401631e-01
1.532288880397401631e-01
1.532288880397401631e-01
1.459686664119220489e-01
1.459686664119220489e-01
1.410011463507833407e-01
1.410011463507833407e-01
1.410011463507833407e-01
1.578142911730989750e-01
1.578142911730989750e-01
1.601069927397783810e-01
1.601069927397783810e-01
1.601069927397783810e-01
1.551394726786396727e-01
1.551394726786396727e-01
1.566679403897592582e-01
1.566679403897592582e-01
1.566679403897592582e-01
1.539931218952999559e-01
1.539931218952999559e-01
1.406190294230034443e-01
1.406190294230034443e-01
1.406190294230034443e-01
1.421474971341230298e-01
1.421474971341230298e-01
1.425296140619029539e-01
1.425296140619029539e-01
1.425296140619029539e-01
1.612533435231180701e-01
1.612533435231180701e-01
1.570500573175391545e-01
1.570500573175391545e-01
1.570500573175391545e-01
1.406190294230034443e-01
1.406190294230034443e-01
1.547573557508597764e-01
1.547573557508597764e-01
1.547573557508597764e-01
1.341230416507451229e-01
1.341230416507451229e-01
1.341230416507451229e-01
1.341230416507451229e-01
1.341230416507451229e-01
1.444401987008024357e-01
1.444401987008024357e-01
1.559037065341994654e-01
1.559037065341994654e-01
1.559037065341994654e-01
1.524646541841803704e-01
1.524646541841803704e-01
1.432938479174627466e-01
1.432938479174627466e-01
1.432938479174627466e-01
1.367978601452044252e-01
1.367978601452044252e-01
1.417653802063431334e-01
1.417653802063431334e-01
1.417653802063431334e-01
1.513183034008406536e-01
1.513183034008406536e-01
1.379442109285441420e-01
1.379442109285441420e-01
1.379442109285441420e-01
1.310661062285059242e-01
1.310661062285059242e-01
1.440580817730225394e-01
1.440580817730225394e-01
1.440580817730225394e-01
1.425296140619029539e-01
1.425296140619029539e-01
1.478792510508215585e-01
1.478792510508215585e-01
1.478792510508215585e-01
1.394726786396637275e-01
1.394726786396637275e-01
1.371799770729843215e-01
1.371799770729843215e-01
1.371799770729843215e-01
1.463507833397019453e-01
1.463507833397019453e-01
1.394726786396637275e-01
1.394726786396637275e-01
1.394726786396637275e-01
1.517004203286205499e-01
1.517004203286205499e-01
1.440580817730225394e-01
1.440580817730225394e-01
1.440580817730225394e-01
1.593427588842185605e-01
1.593427588842185605e-01
1.715705005731753829e-01
1.715705005731753829e-01
1.715705005731753829e-01
1.677493312953763915e-01
1.677493312953763915e-01
1.746274359954146094e-01
1.746274359954146094e-01
1.746274359954146094e-01
1.811234237676729031e-01
1.811234237676729031e-01
1.803591899121131104e-01
1.803591899121131104e-01
1.803591899121131104e-01
1.967902178066488483e-01
1.967902178066488483e-01
2.113106610622850490e-01
2.113106610622850490e-01
2.113106610622850490e-01
2.105464272067252562e-01
2.105464272067252562e-01
2.116927779900649731e-01
2.116927779900649731e-01
2.116927779900649731e-01
2.243026366068016919e-01
2.243026366068016919e-01
2.327092090179594952e-01
2.327092090179594952e-01
2.327092090179594952e-01
2.556362246847535546e-01
2.556362246847535546e-01
2.430263660680168081e-01
2.430263660680168081e-01
2.430263660680168081e-01
2.709209017959495758e-01
2.709209017959495758e-01
2.751241880015284913e-01
2.751241880015284913e-01
2.751241880015284913e-01
2.812380588460068886e-01
2.812380588460068886e-01
2.938479174627435797e-01
2.938479174627435797e-01
2.938479174627435797e-01
3.110431792128391382e-01
3.110431792128391382e-01
3.083683607183798081e-01
3.083683607183798081e-01
3.083683607183798081e-01
3.167749331295376392e-01
3.167749331295376392e-01
3.290026748184944339e-01
3.290026748184944339e-01
3.431410011463507659e-01
3.431410011463507659e-01
3.431410011463507659e-01
3.393198318685518022e-01
3.393198318685518022e-01
3.588077951853266834e-01
3.588077951853266834e-01
3.588077951853266834e-01
3.553687428353076161e-01
3.553687428353076161e-01
3.660680168131448253e-01
3.660680168131448253e-01
3.660680168131448253e-01
3.645395491020252399e-01
3.645395491020252399e-01
3.863202139854795547e-01
3.863202139854795547e-01
3.863202139854795547e-01
3.916698509743981593e-01
3.916698509743981593e-01
3.905235001910584702e-01
3.905235001910584702e-01
3.905235001910584702e-01
3.886129155521589329e-01
3.886129155521589329e-01
3.977837218188765567e-01
3.977837218188765567e-01
3.977837218188765567e-01
4.027512418800152649e-01
4.027512418800152649e-01
4.084829957967138214e-01
4.084829957967138214e-01
4.084829957967138214e-01
4.207107374856706161e-01
4.207107374856706161e-01
4.210928544134505125e-01
4.210928544134505125e-01
4.210928544134505125e-01
4.298815437523882399e-01
4.298815437523882399e-01
4.294994268246083435e-01
4.294994268246083435e-01
4.294994268246083435e-01
4.356132976690867409e-01
4.356132976690867409e-01
4.440198700802445719e-01
4.440198700802445719e-01
4.440198700802445719e-01
4.371417653802063263e-01
4.371417653802063263e-01
4.390523500191058637e-01
4.390523500191058637e-01
4.390523500191058637e-01
4.359954145968666372e-01
4.359954145968666372e-01
4.340848299579671554e-01
4.340848299579671554e-01
4.340848299579671554e-01
4.421092854413450346e-01
4.421092854413450346e-01
4.306457776079480326e-01
4.306457776079480326e-01
4.306457776079480326e-01
4.371417653802063263e-01
4.371417653802063263e-01
4.474589224302636392e-01
4.474589224302636392e-01
4.474589224302636392e-01
4.440198700802445719e-01
4.440198700802445719e-01
4.401987008024455528e-01
4.401987008024455528e-01
4.401987008024455528e-01
4.455483377913641574e-01
4.455483377913641574e-01
4.463125716469239501e-01
4.463125716469239501e-01
4.463125716469239501e-01
4.367596484524264300e-01
4.367596484524264300e-01
4.482231562858234875e-01
4.482231562858234875e-01
4.482231562858234875e-01
4.398165838746656564e-01
4.398165838746656564e-01
4.390523500191058637e-01
4.390523500191058637e-01
4.390523500191058637e-01
4.325563622468475145e-01
4.325563622468475145e-01
4.348490638135269482e-01
4.348490638135269482e-01
4.348490638135269482e-01
4.444019870080244683e-01
4.444019870080244683e-01
4.348490638135269482e-01
4.348490638135269482e-01
4.348490638135269482e-01
4.390523500191058637e-01
