2.904088651127245124e-01
2.904088651127245124e-01
2.911730989682843052e-01
2.911730989682843052e-01
2.911730989682843052e-01
2.659533817348108675e-01
2.659533817348108675e-01
2.777990064959877659e-01
2.777990064959877659e-01
2.777990064959877659e-01
2.762705387848681804e-01
2.762705387848681804e-01
2.529614061902942246e-01
2.529614061902942246e-01
2.529614061902942246e-01
2.762705387848681804e-01
2.762705387848681804e-01
2.667176155903706603e-01
2.667176155903706603e-01
2.667176155903706603e-01
2.437905999235766008e-01
2.437905999235766008e-01
2.598395108903324147e-01
2.598395108903324147e-01
2.598395108903324147e-01
2.648070309514711229e-01
2.648070309514711229e-01
2.430263660680168081e-01
2.430263660680168081e-01
2.430263660680168081e-01
2.544898739014138100e-01
2.544898739014138100e-01
2.495223538402751295e-01
2.495223538402751295e-01
2.495223538402751295e-01
2.617500955292319520e-01
2.617500955292319520e-01
2.372946121513183071e-01
2.372946121513183071e-01
2.372946121513183071e-01
2.556362246847535546e-01
2.556362246847535546e-01
2.323270920901795988e-01
2.323270920901795988e-01
2.273595720290408906e-01
2.273595720290408906e-01
2.273595720290408906e-01
2.502865876958349500e-01
2.502865876958349500e-01
2.418800152846771190e-01
2.418800152846771190e-01
2.418800152846771190e-01
2.262132212457011737e-01
2.262132212457011737e-01
2.437905999235766008e-01
2.437905999235766008e-01
2.437905999235766008e-01
2.365303782957585144e-01
2.365303782957585144e-01
2.365303782957585144e-01
2.365303782957585144e-01
2.365303782957585144e-01
2.449369507069163177e-01
2.449369507069163177e-01
2.430263660680168081e-01
2.430263660680168081e-01
2.430263660680168081e-01
2.472296522735957236e-01
2.472296522735957236e-01
2.258311043179212774e-01
2.258311043179212774e-01
2.258311043179212774e-01
2.457011845624761104e-01
2.457011845624761104e-01
2.315628582346198061e-01
2.315628582346198061e-01
2.315628582346198061e-01
2.395873137179977130e-01
2.395873137179977130e-01
2.269774551012609942e-01
2.269774551012609942e-01
2.269774551012609942e-01
2.265953381734810979e-01
2.265953381734810979e-01
2.105464272067252562e-01
2.105464272067252562e-01
2.105464272067252562e-01
2.357661444401986939e-01
2.357661444401986939e-01
2.208635842567825691e-01
2.208635842567825691e-01
2.208635842567825691e-01
2.097821933511654635e-01
2.097821933511654635e-01
2.082537256400458503e-01
2.082537256400458503e-01
2.082537256400458503e-01
2.296522735957202965e-01
2.296522735957202965e-01
2.044325563622468589e-01
2.044325563622468589e-01
2.044325563622468589e-01
2.063431410011463407e-01
2.063431410011463407e-01
2.059610240733664444e-01
2.059610240733664444e-01
2.059610240733664444e-01
2.216278181123423896e-01
2.216278181123423896e-01
1.994650363011081506e-01
1.994650363011081506e-01
1.994650363011081506e-01
2.048146732900267553e-01
2.048146732900267553e-01
2.143675964845242754e-01
2.143675964845242754e-01
2.143675964845242754e-01
2.105464272067252562e-01
2.105464272067252562e-01
2.132212457011845586e-01
2.132212457011845586e-01
2.132212457011845586e-01
2.158960641956438609e-01
2.158960641956438609e-01
2.051967902178066516e-01
2.051967902178066516e-01
2.051967902178066516e-01
1.914405808177302160e-01
1.914405808177302160e-01
1.948796331677493388e-01
1.948796331677493388e-01
1.948796331677493388e-01
1.914405808177302160e-01
1.914405808177302160e-01
1.880015284677111209e-01
1.880015284677111209e-01
1.880015284677111209e-01
1.956438670233091315e-01
1.956438670233091315e-01
1.857088269010317150e-01
1.857088269010317150e-01
1.857088269010317150e-01
1.837982422621322054e-01
1.837982422621322054e-01
2.044325563622468589e-01
2.044325563622468589e-01
2.044325563622468589e-01
1.818876576232326958e-01
1.818876576232326958e-01
1.895299961788307341e-01
1.895299961788307341e-01
1.895299961788307341e-01
1.742453190676346853e-01
1.742453190676346853e-01
1.746274359954146094e-01
1.746274359954146094e-01
1.746274359954146094e-01
1.983186855177684338e-01
1.983186855177684338e-01
1.967902178066488483e-01
1.967902178066488483e-01
1.967902178066488483e-01
1.643102789453572687e-01
1.643102789453572687e-01
1.792128391287733935e-01
1.792128391287733935e-01
1.792128391287733935e-01
1.685135651509361843e-01
1.685135651509361843e-01
1.646923958731371929e-01
1.646923958731371929e-01
1.646923958731371929e-01
1.608712265953381737e-01
1.608712265953381737e-01
1.559037065341994654e-01
1.559037065341994654e-01
1.559037065341994654e-01
1.612533435231180701e-01
1.612533435231180701e-01
1.746274359954146094e-01
1.746274359954146094e-01
1.746274359954146094e-01
1.620175773786778628e-01
1.620175773786778628e-01
1.486434849063813513e-01
1.486434849063813513e-01
1.486434849063813513e-01
1.574321742453190787e-01
1.574321742453190787e-01
1.425296140619029539e-01
1.425296140619029539e-01
1.425296140619029539e-01
1.604891096675582773e-01
1.604891096675582773e-01
1.417653802063431334e-01
1.417653802063431334e-01
1.417653802063431334e-01
1.459686664119220489e-01
1.459686664119220489e-01
1.325945739396255374e-01
1.325945739396255374e-01
1.325945739396255374e-01
1.280091708062667255e-01
1.280091708062667255e-01
1.478792510508215585e-01
1.478792510508215585e-01
1.478792510508215585e-01
1.303018723729461315e-01
1.303018723729461315e-01
1.436759648452426430e-01
1.436759648452426430e-01
1.436759648452426430e-01
1.272449369507069050e-01
1.272449369507069050e-01
1.333588077951853301e-01
1.333588077951853301e-01
1.333588077951853301e-01
1.138708444784103935e-01
1.138708444784103935e-01
1.234237676729079136e-01
1.234237676729079136e-01
1.234237676729079136e-01
1.318303400840657169e-01
1.318303400840657169e-01
1.180741306839892951e-01
1.180741306839892951e-01
1.180741306839892951e-01
1.054642720672525763e-01
1.054642720672525763e-01
1.230416507451280034e-01
1.230416507451280034e-01
1.230416507451280034e-01
1.027894535727932740e-01
1.027894535727932740e-01
1.050821551394726799e-01
1.050821551394726799e-01
1.050821551394726799e-01
9.743981658387466938e-02
9.743981658387466938e-02
1.012609858616736747e-01
1.012609858616736747e-01
1.012609858616736747e-01
1.004967520061138680e-01
1.004967520061138680e-01
9.552923194497515980e-02
9.552923194497515980e-02
9.552923194497515980e-02
9.094382881161634791e-02
9.094382881161634791e-02
9.552923194497515980e-02
9.552923194497515980e-02
8.521207489491784692e-02
8.521207489491784692e-02
8.521207489491784692e-02
1.058463889950324865e-01
1.058463889950324865e-01
1.096675582728314918e-01
1.096675582728314918e-01
1.096675582728314918e-01
8.139090561711884164e-02
8.139090561711884164e-02
8.750477646159725287e-02
8.750477646159725287e-02
8.750477646159725287e-02
1.043179212839128733e-01
1.043179212839128733e-01
9.247229652273596112e-02
9.247229652273596112e-02
9.247229652273596112e-02
1.012609858616736747e-01
1.012609858616736747e-01
9.438288116163545682e-02
9.438288116163545682e-02
9.438288116163545682e-02
7.565915170042032678e-02
7.565915170042032678e-02
9.170806266717615451e-02
9.170806266717615451e-02
9.170806266717615451e-02
9.285441345051585749e-02
9.285441345051585749e-02
8.444784103935804032e-02
8.444784103935804032e-02
8.444784103935804032e-02
8.903324417271685220e-02
8.903324417271685220e-02
6.419564386702331094e-02
6.419564386702331094e-02
6.419564386702331094e-02
7.222009935040121786e-02
7.222009935040121786e-02
6.687046236148261324e-02
6.687046236148261324e-02
6.687046236148261324e-02
8.444784103935804032e-02
8.444784103935804032e-02
5.808177302254489971e-02
5.808177302254489971e-02
5.808177302254489971e-02
7.795185326709973272e-02
7.795185326709973272e-02
7.336645013374092084e-02
7.336645013374092084e-02
7.336645013374092084e-02
8.253725640045854461e-02
8.253725640045854461e-02
5.884600687810469938e-02
5.884600687810469938e-02
5.884600687810469938e-02
6.152082537256400169e-02
6.152082537256400169e-02
6.419564386702331094e-02
6.419564386702331094e-02
6.419564386702331094e-02
6.075659151700420202e-02
6.075659151700420202e-02
6.190294230034390499e-02
6.190294230034390499e-02
6.190294230034390499e-02
6.152082537256400169e-02
6.152082537256400169e-02
6.725257928926250961e-02
6.725257928926250961e-02
6.725257928926250961e-02
7.107374856706151489e-02
7.107374856706151489e-02
7.336645013374092084e-02
7.336645013374092084e-02
7.336645013374092084e-02
6.763469621704241985e-02
6.763469621704241985e-02
5.884600687810469938e-02
5.884600687810469938e-02
5.884600687810469938e-02
5.999235766144440235e-02
5.999235766144440235e-02
5.846388995032479607e-02
5.846388995032479607e-02
5.846388995032479607e-02
5.922812380588460268e-02
5.922812380588460268e-02
5.349636988918608782e-02
5.349636988918608782e-02
5.349636988918608782e-02
5.922812380588460268e-02
5.922812380588460268e-02
5.961024073366449905e-02
5.961024073366449905e-02
5.961024073366449905e-02
5.426060374474589443e-02
5.426060374474589443e-02
5.120366832250668881e-02
5.120366832250668881e-02
5.120366832250668881e-02
6.687046236148261324e-02
6.687046236148261324e-02
6.763469621704241985e-02
6.763469621704241985e-02
6.763469621704241985e-02
6.037447458922430565e-02
6.037447458922430565e-02
4.165074512800916867e-02
4.165074512800916867e-02
4.165074512800916867e-02
6.801681314482231622e-02
6.801681314482231622e-02
6.878104700038212282e-02
6.878104700038212282e-02
6.878104700038212282e-02
7.374856706152083108e-02
7.374856706152083108e-02
4.241497898356897528e-02
4.241497898356897528e-02
4.241497898356897528e-02
4.203286205578907198e-02
4.203286205578907198e-02
5.005731753916698584e-02
5.005731753916698584e-02
5.005731753916698584e-02
6.610622850592280664e-02
6.610622850592280664e-02
6.648834543370271688e-02
6.648834543370271688e-02
6.648834543370271688e-02
4.050439434466946570e-02
4.050439434466946570e-02
6.228505922812380829e-02
6.228505922812380829e-02
6.228505922812380829e-02
4.432556362246847792e-02
4.432556362246847792e-02
4.203286205578907198e-02
4.203286205578907198e-02
4.203286205578907198e-02
5.540695452808559740e-02
5.540695452808559740e-02
6.763469621704241985e-02
6.763469621704241985e-02
6.763469621704241985e-02
5.693542223920519674e-02
5.693542223920519674e-02
4.470768055024837428e-02
4.470768055024837428e-02
4.470768055024837428e-02
3.935804356132976967e-02
3.935804356132976967e-02
3.821169277799006669e-02
3.821169277799006669e-02
3.821169277799006669e-02
5.464272067252579079e-02
5.464272067252579079e-02
3.668322506687046042e-02
3.668322506687046042e-02
3.668322506687046042e-02
6.266717615590371160e-02
6.266717615590371160e-02
5.731753916698510004e-02
5.731753916698510004e-02
5.731753916698510004e-02
4.508979747802827759e-02
4.508979747802827759e-02
4.508979747802827759e-02
4.508979747802827759e-02
4.508979747802827759e-02
4.279709591134887164e-02
4.279709591134887164e-02
6.572411157814291027e-02
6.572411157814291027e-02
6.572411157814291027e-02
6.152082537256400169e-02
6.152082537256400169e-02
5.655330531142529343e-02
5.655330531142529343e-02
5.655330531142529343e-02
8.521207489491784692e-02
8.521207489491784692e-02
8.482995796713795056e-02
8.482995796713795056e-02
8.482995796713795056e-02
6.610622850592280664e-02
6.610622850592280664e-02
8.903324417271685220e-02
8.903324417271685220e-02
8.903324417271685220e-02
7.183798242262132150e-02
7.183798242262132150e-02
8.712265953381734263e-02
8.712265953381734263e-02
8.712265953381734263e-02
8.330149025601833734e-02
8.330149025601833734e-02
1.131066106228505869e-01
1.131066106228505869e-01
1.104317921283912846e-01
1.104317921283912846e-01
1.104317921283912846e-01
1.226595338173481070e-01
1.226595338173481070e-01
1.345051585785250192e-01
1.345051585785250192e-01
1.345051585785250192e-01
1.375620940007642456e-01
1.375620940007642456e-01
1.646923958731371929e-01
1.646923958731371929e-01
1.646923958731371929e-01
1.463507833397019453e-01
1.463507833397019453e-01
1.761559037065341948e-01
1.761559037065341948e-01
1.761559037065341948e-01
1.830340084065724127e-01
1.830340084065724127e-01
1.818876576232326958e-01
1.818876576232326958e-01
1.818876576232326958e-01
2.063431410011463407e-01
2.063431410011463407e-01
2.342376767290791084e-01
2.342376767290791084e-01
2.342376767290791084e-01
2.285059228123805797e-01
2.285059228123805797e-01
2.506687046236148464e-01
2.506687046236148464e-01
2.506687046236148464e-01
2.586931601069927256e-01
2.586931601069927256e-01
2.846771111960260114e-01
2.846771111960260114e-01
2.846771111960260114e-01
3.003439052350019289e-01
3.003439052350019289e-01
3.049293083683607408e-01
3.049293083683607408e-01
3.049293083683607408e-01
3.102789453572793454e-01
3.102789453572793454e-01
3.309132594573939712e-01
3.309132594573939712e-01
3.309132594573939712e-01
3.305311425296140748e-01
3.305311425296140748e-01
3.611004967520061171e-01
3.611004967520061171e-01
3.611004967520061171e-01
3.504012227741689078e-01
3.504012227741689078e-01
3.844096293465800729e-01
3.844096293465800729e-01
3.844096293465800729e-01
3.756209400076423455e-01
3.756209400076423455e-01
3.977837218188765567e-01
3.977837218188765567e-01
3.977837218188765567e-01
3.878486816965991402e-01
3.878486816965991402e-01
4.115399312189529923e-01
4.115399312189529923e-01
4.115399312189529923e-01
4.306457776079480326e-01
4.306457776079480326e-01
4.333205961024073627e-01
4.333205961024073627e-01
4.333205961024073627e-01
4.314100114635078254e-01
4.314100114635078254e-01
4.390523500191058637e-01
4.390523500191058637e-01
4.390523500191058637e-01
4.298815437523882399e-01
4.298815437523882399e-01
4.409629346580053455e-01
4.409629346580053455e-01
4.409629346580053455e-01
4.551012609858616775e-01
4.551012609858616775e-01
4.661826518914787831e-01
4.661826518914787831e-01
4.661826518914787831e-01
4.795567443637753224e-01
4.795567443637753224e-01
4.577760794803209521e-01
4.577760794803209521e-01
4.577760794803209521e-01
4.551012609858616775e-01
4.551012609858616775e-01
4.818494459304547006e-01
4.818494459304547006e-01
4.818494459304547006e-01
4.635078333970195086e-01
4.635078333970195086e-01
4.826136797860144934e-01
4.826136797860144934e-01
4.826136797860144934e-01
4.680932365303783205e-01
4.680932365303783205e-01
4.677111196025983686e-01
4.677111196025983686e-01
4.677111196025983686e-01
4.948414214749713436e-01
4.948414214749713436e-01
4.925487199082919099e-01
4.925487199082919099e-01
4.925487199082919099e-01
4.933129537638517581e-01
4.933129537638517581e-01
4.910202521971723244e-01
4.910202521971723244e-01
4.910202521971723244e-01
4.700038211692778023e-01
4.700038211692778023e-01
4.722965227359571805e-01
4.722965227359571805e-01
4.722965227359571805e-01
4.742071073748567178e-01
4.742071073748567178e-01
4.646541841803591977e-01
4.646541841803591977e-01
4.646541841803591977e-01
4.673290026748184722e-01
4.673290026748184722e-01
4.860527321360336162e-01
4.860527321360336162e-01
4.860527321360336162e-01
4.638899503247994049e-01
4.638899503247994049e-01
4.810852120748949079e-01
4.810852120748949079e-01
4.810852120748949079e-01
4.730607565915170287e-01
4.730607565915170287e-01
4.528085594191822438e-01
4.528085594191822438e-01
4.528085594191822438e-01
4.589224302636606967e-01
4.589224302636606967e-01
4.791746274359954261e-01
4.791746274359954261e-01
4.791746274359954261e-01
4.615972487581199712e-01
4.615972487581199712e-01
4.489873901413832802e-01
4.489873901413832802e-01
4.489873901413832802e-01
4.593045471914405931e-01
4.593045471914405931e-01
4.558654948414214703e-01
4.558654948414214703e-01
4.558654948414214703e-01
4.577760794803209521e-01
4.577760794803209521e-01
4.508979747802827620e-01
4.508979747802827620e-01
4.508979747802827620e-01
4.401987008024455528e-01
4.401987008024455528e-01
4.398165838746656564e-01
4.398165838746656564e-01
4.398165838746656564e-01
4.401987008024455528e-01
4.401987008024455528e-01
4.249140236912495316e-01
4.249140236912495316e-01
4.249140236912495316e-01
4.230034390523499943e-01
4.230034390523499943e-01
4.256782575468093244e-01
4.256782575468093244e-01
4.256782575468093244e-01
4.344669468857470518e-01
4.344669468857470518e-01
4.256782575468093244e-01
4.256782575468093244e-01
4.256782575468093244e-01
4.210928544134505125e-01
4.210928544134505125e-01
4.321742453190676181e-01
4.321742453190676181e-01
4.321742453190676181e-01
4.103935804356133032e-01
4.103935804356133032e-01
4.268246083301490135e-01
4.268246083301490135e-01
4.268246083301490135e-01
4.123041650745127851e-01
4.123041650745127851e-01
3.935804356132976967e-01
3.935804356132976967e-01
3.935804356132976967e-01
3.970194879633167639e-01
3.970194879633167639e-01
3.966373710355368676e-01
3.966373710355368676e-01
3.970194879633167639e-01
3.970194879633167639e-01
3.970194879633167639e-01
3.954910202521971785e-01
3.954910202521971785e-01
3.702713030187237409e-01
3.702713030187237409e-01
3.702713030187237409e-01
3.889950324799388848e-01
3.889950324799388848e-01
3.710355368742835336e-01
3.710355368742835336e-01
3.710355368742835336e-01
3.824990447076805355e-01
3.824990447076805355e-01
3.534581581964080788e-01
3.534581581964080788e-01
3.534581581964080788e-01
3.729461215131830154e-01
3.729461215131830154e-01
3.530760412686281824e-01
3.530760412686281824e-01
3.530760412686281824e-01
3.362628964463125758e-01
3.362628964463125758e-01
3.534581581964080788e-01
3.534581581964080788e-01
3.534581581964080788e-01
3.305311425296140748e-01
3.305311425296140748e-01
3.450515857852503032e-01
3.450515857852503032e-01
3.450515857852503032e-01
3.389377149407718504e-01
3.389377149407718504e-01
3.148643484906381573e-01
3.148643484906381573e-01
3.148643484906381573e-01
3.328238440962934530e-01
3.328238440962934530e-01
3.198318685517768656e-01
3.198318685517768656e-01
3.198318685517768656e-01
2.949942682460833243e-01
2.949942682460833243e-01
2.949942682460833243e-01
2.949942682460833243e-01
2.949942682460833243e-01
3.102789453572793454e-01
3.102789453572793454e-01
2.953763851738632207e-01
2.953763851738632207e-01
2.953763851738632207e-01
2.938479174627435797e-01
2.938479174627435797e-01
2.965227359572029098e-01
2.965227359572029098e-01
2.965227359572029098e-01
2.667176155903706603e-01
2.667176155903706603e-01
2.793274742071073513e-01
2.793274742071073513e-01
2.793274742071073513e-01
2.850592281238059078e-01
2.850592281238059078e-01
2.674818494459304530e-01
2.674818494459304530e-01
2.674818494459304530e-01
2.663354986625907639e-01
2.663354986625907639e-01
2.648070309514711229e-01
2.648070309514711229e-01
2.648070309514711229e-01
2.502865876958349500e-01
2.502865876958349500e-01
2.621322124570118484e-01
2.621322124570118484e-01
2.621322124570118484e-01
2.598395108903324147e-01
2.598395108903324147e-01
2.567825754680932437e-01
2.567825754680932437e-01
2.567825754680932437e-01
2.506687046236148464e-01
2.506687046236148464e-01
2.262132212457011737e-01
2.262132212457011737e-01
2.262132212457011737e-01
2.414978983568972226e-01
2.414978983568972226e-01
2.372946121513183071e-01
2.372946121513183071e-01
2.372946121513183071e-01
2.453190676346962140e-01
2.453190676346962140e-01
2.376767290790982035e-01
2.376767290790982035e-01
2.376767290790982035e-01
2.288880397401604760e-01
2.288880397401604760e-01
2.361482613679785902e-01
2.361482613679785902e-01
2.361482613679785902e-01
2.319449751623997025e-01
2.319449751623997025e-01
2.166602980512036813e-01
2.166602980512036813e-01
2.166602980512036813e-01
2.403515475735575058e-01
2.403515475735575058e-01
2.388230798624378926e-01
2.388230798624378926e-01
2.388230798624378926e-01
2.185708826901031632e-01
2.185708826901031632e-01
2.128391287734046622e-01
2.128391287734046622e-01
2.128391287734046622e-01
2.361482613679785902e-01
2.361482613679785902e-01
2.411157814291172985e-01
2.411157814291172985e-01
2.411157814291172985e-01
2.158960641956438609e-01
2.158960641956438609e-01
2.090179594956056430e-01
2.090179594956056430e-01
2.090179594956056430e-01
2.380588460068780998e-01
2.380588460068780998e-01
2.288880397401604760e-01
2.288880397401604760e-01
2.288880397401604760e-01
2.250668704623614846e-01
2.250668704623614846e-01
2.116927779900649731e-01
2.116927779900649731e-01
2.116927779900649731e-01
2.369124952235384107e-01
2.369124952235384107e-01
2.208635842567825691e-01
2.208635842567825691e-01
2.208635842567825691e-01
2.101643102789453599e-01
2.101643102789453599e-01
2.166602980512036813e-01
2.166602980512036813e-01
2.166602980512036813e-01
2.296522735957202965e-01
2.296522735957202965e-01
2.189529996178830595e-01
2.189529996178830595e-01
2.189529996178830595e-01
2.246847535345815883e-01
2.246847535345815883e-01
2.086358425678257467e-01
2.086358425678257467e-01
2.086358425678257467e-01
2.101643102789453599e-01
2.101643102789453599e-01
2.048146732900267553e-01
2.048146732900267553e-01
2.048146732900267553e-01
2.239205196790217678e-01
2.239205196790217678e-01
2.300343905235001929e-01
2.300343905235001929e-01
2.300343905235001929e-01
2.074894917844860576e-01
2.074894917844860576e-01
2.239205196790217678e-01
2.239205196790217678e-01
2.239205196790217678e-01
2.025219717233473493e-01
2.025219717233473493e-01
2.116927779900649731e-01
2.116927779900649731e-01
2.116927779900649731e-01
2.235384027512418714e-01
2.235384027512418714e-01
2.021398547955674529e-01
2.021398547955674529e-01
2.021398547955674529e-01
1.941153993121895183e-01
1.941153993121895183e-01
2.204814673290026728e-01
2.204814673290026728e-01
2.204814673290026728e-01
2.189529996178830595e-01
2.189529996178830595e-01
2.147497134123041718e-01
2.147497134123041718e-01
2.147497134123041718e-01
2.013756209400076325e-01
2.013756209400076325e-01
2.132212457011845586e-01
2.132212457011845586e-01
2.132212457011845586e-01
2.124570118456247658e-01
2.124570118456247658e-01
1.975544516622086411e-01
1.975544516622086411e-01
1.975544516622086411e-01
2.059610240733664444e-01
2.059610240733664444e-01
1.895299961788307341e-01
1.895299961788307341e-01
2.067252579289262648e-01
2.067252579289262648e-01
2.067252579289262648e-01
1.853267099732518186e-01
1.853267099732518186e-01
1.887657623232709136e-01
1.887657623232709136e-01
1.887657623232709136e-01
2.025219717233473493e-01
2.025219717233473493e-01
1.929690485288498292e-01
1.929690485288498292e-01
1.929690485288498292e-01
1.983186855177684338e-01
1.983186855177684338e-01
1.761559037065341948e-01
1.761559037065341948e-01
1.761559037065341948e-01
1.841803591899121018e-01
1.841803591899121018e-01
1.902942300343905269e-01
1.902942300343905269e-01
1.902942300343905269e-01
1.902942300343905269e-01
1.902942300343905269e-01
1.620175773786778628e-01
1.620175773786778628e-01
1.620175773786778628e-01
1.581964081008788714e-01
1.581964081008788714e-01
1.677493312953763915e-01
1.677493312953763915e-01
1.677493312953763915e-01
1.692777990064959770e-01
1.692777990064959770e-01
1.730989682842949962e-01
1.730989682842949962e-01
1.730989682842949962e-01
1.627818112342376833e-01
1.627818112342376833e-01
1.643102789453572687e-01
1.643102789453572687e-01
1.643102789453572687e-01
1.631639281620175796e-01
1.631639281620175796e-01
1.482613679786014549e-01
1.482613679786014549e-01
1.482613679786014549e-01
1.685135651509361843e-01
1.685135651509361843e-01
1.566679403897592582e-01
1.566679403897592582e-01
1.566679403897592582e-01
1.566679403897592582e-01
1.566679403897592582e-01
1.448223156285823598e-01
1.448223156285823598e-01
1.448223156285823598e-01
1.646923958731371929e-01
1.646923958731371929e-01
1.387084447841039347e-01
1.387084447841039347e-01
1.387084447841039347e-01
1.604891096675582773e-01
1.604891096675582773e-01
1.425296140619029539e-01
1.425296140619029539e-01
1.425296140619029539e-01
1.425296140619029539e-01
1.425296140619029539e-01
1.543752388230798522e-01
1.543752388230798522e-01
1.543752388230798522e-01
1.272449369507069050e-01
1.272449369507069050e-01
1.348872755063049156e-01
1.348872755063049156e-01
1.348872755063049156e-01
1.260985861673672159e-01
1.260985861673672159e-01
1.303018723729461315e-01
1.303018723729461315e-01
1.303018723729461315e-01
1.211310661062285077e-01
1.211310661062285077e-01
1.379442109285441420e-01
1.379442109285441420e-01
1.379442109285441420e-01
1.196025983951089083e-01
1.196025983951089083e-01
1.272449369507069050e-01
1.272449369507069050e-01
1.272449369507069050e-01
1.142529614061902898e-01
1.142529614061902898e-01
1.283912877340466219e-01
1.283912877340466219e-01
1.283912877340466219e-01
1.108139090561711948e-01
1.108139090561711948e-01
1.303018723729461315e-01
1.303018723729461315e-01
1.303018723729461315e-01
1.215131830340084040e-01
1.215131830340084040e-01
1.360336262896446324e-01
1.360336262896446324e-01
1.360336262896446324e-01
1.176920137562093988e-01
1.176920137562093988e-01
1.085212074894917889e-01
1.085212074894917889e-01
1.085212074894917889e-01
1.218952999617883004e-01
1.218952999617883004e-01
1.100496752006113882e-01
1.100496752006113882e-01
1.100496752006113882e-01
1.073748567061520859e-01
1.073748567061520859e-01
1.272449369507069050e-01
1.272449369507069050e-01
1.272449369507069050e-01
1.253343523118074232e-01
1.253343523118074232e-01
1.283912877340466219e-01
1.283912877340466219e-01
1.283912877340466219e-01
1.257164692395873196e-01
1.257164692395873196e-01
1.226595338173481070e-01
1.226595338173481070e-01
1.226595338173481070e-01
1.073748567061520859e-01
1.073748567061520859e-01
1.257164692395873196e-01
1.257164692395873196e-01
1.257164692395873196e-01
1.184562476117692054e-01
1.184562476117692054e-01
1.081390905617118786e-01
1.081390905617118786e-01
1.081390905617118786e-01
9.667558272831486277e-02
9.667558272831486277e-02
1.153993121895299928e-01
1.153993121895299928e-01
1.153993121895299928e-01
1.169277799006495921e-01
1.169277799006495921e-01
9.323653037829575385e-02
9.323653037829575385e-02
9.323653037829575385e-02
1.138708444784103935e-01
1.138708444784103935e-01
1.188383645395491017e-01
1.188383645395491017e-01
1.188383645395491017e-01
9.782193351165456574e-02
9.782193351165456574e-02
1.096675582728314918e-01
1.096675582728314918e-01
1.096675582728314918e-01
1.138708444784103935e-01
1.138708444784103935e-01
1.153993121895299928e-01
1.153993121895299928e-01
1.153993121895299928e-01
8.826901031715704560e-02
8.826901031715704560e-02
8.406572411157814395e-02
8.406572411157814395e-02
8.406572411157814395e-02
1.012609858616736747e-01
1.012609858616736747e-01
9.514711501719526343e-02
9.514711501719526343e-02
9.514711501719526343e-02
9.973251815055407532e-02
9.973251815055407532e-02
1.066106228505922793e-01
1.066106228505922793e-01
1.066106228505922793e-01
9.705769965609475913e-02
9.705769965609475913e-02
8.712265953381734263e-02
8.712265953381734263e-02
8.712265953381734263e-02
8.406572411157814395e-02
8.406572411157814395e-02
9.629346580053496640e-02
9.629346580053496640e-02
9.629346580053496640e-02
9.667558272831486277e-02
9.667558272831486277e-02
8.444784103935804032e-02
8.444784103935804032e-02
8.444784103935804032e-02
8.979747802827665881e-02
8.979747802827665881e-02
8.100878868933893140e-02
8.100878868933893140e-02
8.521207489491784692e-02
8.521207489491784692e-02
8.521207489491784692e-02
8.291937332823844098e-02
8.291937332823844098e-02
8.406572411157814395e-02
8.406572411157814395e-02
8.406572411157814395e-02
9.438288116163545682e-02
9.438288116163545682e-02
1.081390905617118786e-01
1.081390905617118786e-01
1.081390905617118786e-01
9.285441345051585749e-02
9.285441345051585749e-02
8.330149025601833734e-02
8.330149025601833734e-02
8.330149025601833734e-02
7.948032097821933206e-02
7.948032097821933206e-02
8.215513947267863437e-02
8.215513947267863437e-02
8.215513947267863437e-02
9.820405043943446211e-02
9.820405043943446211e-02
8.139090561711884164e-02
8.139090561711884164e-02
8.139090561711884164e-02
9.285441345051585749e-02
9.285441345051585749e-02
9.400076423385556046e-02
9.400076423385556046e-02
9.400076423385556046e-02
8.788689338937714923e-02
8.788689338937714923e-02
1.077569736339319822e-01
1.077569736339319822e-01
1.077569736339319822e-01
9.820405043943446211e-02
9.820405043943446211e-02
9.400076423385556046e-02
9.400076423385556046e-02
9.400076423385556046e-02
9.935040122277416508e-02
9.935040122277416508e-02
1.066106228505922793e-01
1.066106228505922793e-01
1.066106228505922793e-01
8.750477646159725287e-02
8.750477646159725287e-02
9.132594573939625815e-02
9.132594573939625815e-02
9.132594573939625815e-02
9.743981658387466938e-02
9.743981658387466938e-02
1.047000382116927836e-01
1.047000382116927836e-01
1.047000382116927836e-01
1.104317921283912846e-01
1.104317921283912846e-01
9.323653037829575385e-02
9.323653037829575385e-02
9.323653037829575385e-02
1.119602598395108839e-01
1.119602598395108839e-01
8.521207489491784692e-02
8.521207489491784692e-02
8.521207489491784692e-02
9.323653037829575385e-02
9.323653037829575385e-02
8.788689338937714923e-02
8.788689338937714923e-02
8.788689338937714923e-02
1.157814291173099031e-01
1.157814291173099031e-01
1.092854413450515816e-01
1.092854413450515816e-01
1.092854413450515816e-01
9.017959495605655518e-02
9.017959495605655518e-02
1.092854413450515816e-01
1.092854413450515816e-01
1.092854413450515816e-01
1.047000382116927836e-01
1.047000382116927836e-01
1.100496752006113882e-01
1.100496752006113882e-01
1.100496752006113882e-01
9.170806266717615451e-02
9.170806266717615451e-02
9.667558272831486277e-02
9.667558272831486277e-02
9.667558272831486277e-02
9.209017959495605088e-02
9.209017959495605088e-02
9.552923194497515980e-02
9.552923194497515980e-02
9.552923194497515980e-02
1.196025983951089083e-01
1.196025983951089083e-01
1.272449369507069050e-01
1.272449369507069050e-01
1.272449369507069050e-01
1.115781429117309875e-01
1.115781429117309875e-01
1.150171952617500964e-01
1.150171952617500964e-01
1.150171952617500964e-01
1.283912877340466219e-01
1.283912877340466219e-01
1.398547955674436516e-01
1.398547955674436516e-01
1.398547955674436516e-01
1.329766908674054338e-01
1.329766908674054338e-01
1.295376385173863110e-01
1.295376385173863110e-01
1.295376385173863110e-01
1.348872755063049156e-01
1.348872755063049156e-01
1.459686664119220489e-01
1.459686664119220489e-01
1.459686664119220489e-01
1.494077187619411440e-01
1.494077187619411440e-01
1.585785250286587678e-01
1.585785250286587678e-01
1.585785250286587678e-01
1.784486052732136008e-01
1.784486052732136008e-01
2.009935040122277361e-01
2.009935040122277361e-01
2.009935040122277361e-01
1.872372946121513282e-01
1.872372946121513282e-01
1.998471532288880470e-01
1.998471532288880470e-01
1.998471532288880470e-01
2.128391287734046622e-01
2.128391287734046622e-01
2.235384027512418714e-01
2.235384027512418714e-01
2.235384027512418714e-01
2.338555598012991843e-01
2.338555598012991843e-01
2.678639663737103493e-01
2.678639663737103493e-01
2.678639663737103493e-01
2.862055789071455969e-01
2.862055789071455969e-01
2.915552158960642015e-01
2.915552158960642015e-01
2.915552158960642015e-01
3.160106992739778464e-01
3.160106992739778464e-01
3.217424531906763474e-01
3.217424531906763474e-01
3.217424531906763474e-01
3.263278563240351593e-01
3.263278563240351593e-01
3.316774933129537639e-01
3.316774933129537639e-01
3.316774933129537639e-01
3.416125334352311804e-01
3.416125334352311804e-01
3.523118074130683897e-01
3.523118074130683897e-01
3.523118074130683897e-01
3.790599923576614683e-01
3.790599923576614683e-01
3.996943064577760940e-01
3.996943064577760940e-01
3.996943064577760940e-01
4.042797095911349059e-01
4.042797095911349059e-01
4.016048910966755758e-01
4.016048910966755758e-01
4.016048910966755758e-01
4.103935804356133032e-01
4.103935804356133032e-01
4.432556362246847792e-01
4.432556362246847792e-01
4.432556362246847792e-01
4.493695070691631765e-01
4.493695070691631765e-01
4.551012609858616775e-01
4.551012609858616775e-01
4.551012609858616775e-01
4.558654948414214703e-01
4.558654948414214703e-01
4.577760794803209521e-01
4.577760794803209521e-01
4.577760794803209521e-01
4.898739014138326353e-01
4.898739014138326353e-01
4.703859380970576987e-01
4.703859380970576987e-01
4.703859380970576987e-01
5.021016431027894855e-01
5.021016431027894855e-01
5.036301108139090710e-01
5.036301108139090710e-01
5.036301108139090710e-01
4.883454337027130499e-01
4.883454337027130499e-01
5.032479938861291746e-01
5.032479938861291746e-01
5.101260985861674202e-01
5.101260985861674202e-01
5.101260985861674202e-01
5.085976308750477237e-01
5.085976308750477237e-01
5.112724493695071093e-01
5.112724493695071093e-01
5.112724493695071093e-01
5.047764615972487601e-01
5.047764615972487601e-01
5.143293847917462802e-01
5.143293847917462802e-01
5.143293847917462802e-01
5.131830340084065911e-01
5.131830340084065911e-01
5.391669850974397660e-01
5.391669850974397660e-01
5.391669850974397660e-01
5.326709973251815278e-01
5.326709973251815278e-01
5.303782957585021496e-01
5.303782957585021496e-01
5.303782957585021496e-01
5.345815819640810096e-01
5.345815819640810096e-01
5.429881543752388406e-01
5.429881543752388406e-01
5.429881543752388406e-01
5.384027512418799732e-01
5.384027512418799732e-01
5.391669850974397660e-01
5.391669850974397660e-01
5.391669850974397660e-01
5.384027512418799732e-01
5.384027512418799732e-01
5.357279327474206987e-01
5.357279327474206987e-01
5.357279327474206987e-01
5.261750095529231785e-01
5.261750095529231785e-01
5.261750095529231785e-01
5.261750095529231785e-01
5.261750095529231785e-01
5.166220863584256584e-01
5.166220863584256584e-01
5.254107756973633858e-01
5.254107756973633858e-01
5.254107756973633858e-01
5.361100496752005951e-01
5.361100496752005951e-01
5.334352311807413205e-01
5.334352311807413205e-01
5.334352311807413205e-01
5.208253725640046294e-01
5.208253725640046294e-01
5.066870462361482419e-01
5.066870462361482419e-01
5.066870462361482419e-01
5.265571264807030749e-01
5.265571264807030749e-01
5.093618647306075164e-01
5.093618647306075164e-01
5.093618647306075164e-01
5.116545662972870057e-01
5.116545662972870057e-01
4.998089415361100518e-01
4.998089415361100518e-01
4.998089415361100518e-01
4.998089415361100518e-01
4.998089415361100518e-01
5.074512800917080346e-01
5.074512800917080346e-01
5.074512800917080346e-01
5.043943446694688637e-01
5.043943446694688637e-01
5.112724493695071093e-01
5.112724493695071093e-01
5.112724493695071093e-01
4.849063813526939271e-01
4.849063813526939271e-01
4.738249904470768215e-01
4.738249904470768215e-01
4.738249904470768215e-01
4.780282766526557370e-01
4.780282766526557370e-01
4.784103935804356333e-01
4.784103935804356333e-01
4.784103935804356333e-01
4.684753534581582168e-01
4.684753534581582168e-01
4.933129537638517581e-01
4.933129537638517581e-01
4.933129537638517581e-01
4.879633167749331535e-01
4.879633167749331535e-01
4.680932365303783205e-01
4.680932365303783205e-01
4.680932365303783205e-01
4.615972487581199712e-01
4.615972487581199712e-01
4.577760794803209521e-01
4.577760794803209521e-01
4.577760794803209521e-01
4.501337409247229693e-01
4.501337409247229693e-01
4.646541841803591977e-01
4.646541841803591977e-01
4.646541841803591977e-01
4.585403133358808003e-01
4.585403133358808003e-01
4.531906763469621957e-01
4.531906763469621957e-01
4.531906763469621957e-01
4.421092854413450346e-01
4.421092854413450346e-01
4.413450515857852419e-01
4.413450515857852419e-01
4.413450515857852419e-01
4.252961406190294280e-01
4.252961406190294280e-01
4.470768055024837428e-01
4.470768055024837428e-01
4.470768055024837428e-01
4.375238823079862227e-01
4.375238823079862227e-01
4.130683989300725778e-01
4.130683989300725778e-01
4.130683989300725778e-01
4.203286205578907198e-01
4.203286205578907198e-01
4.004585403133358867e-01
4.004585403133358867e-01
4.004585403133358867e-01
3.974016048910966603e-01
3.974016048910966603e-01
3.989300726022163013e-01
3.989300726022163013e-01
3.989300726022163013e-01
3.897592663354986775e-01
3.897592663354986775e-01
3.912877340466182630e-01
3.912877340466182630e-01
3.912877340466182630e-01
3.924340848299579521e-01
3.924340848299579521e-01
3.687428353076040999e-01
3.687428353076040999e-01
3.687428353076040999e-01
3.775315246465418273e-01
3.775315246465418273e-01
3.763851738632021382e-01
3.763851738632021382e-01
3.763851738632021382e-01
3.771494077187619309e-01
3.771494077187619309e-01
3.660680168131448253e-01
3.660680168131448253e-01
3.660680168131448253e-01
3.580435613297668906e-01
3.580435613297668906e-01
3.511654566297287006e-01
3.511654566297287006e-01
3.511654566297287006e-01
3.354986625907527831e-01
3.354986625907527831e-01
3.278563240351547448e-01
3.278563240351547448e-01
3.278563240351547448e-01
3.339701948796331421e-01
3.339701948796331421e-01
3.110431792128391382e-01
3.110431792128391382e-01
3.110431792128391382e-01
3.056935422239205336e-01
3.056935422239205336e-01
3.228888039740160365e-01
3.228888039740160365e-01
3.228888039740160365e-01
3.018723729461215144e-01
3.018723729461215144e-01
3.213603362628964510e-01
3.213603362628964510e-01
3.213603362628964510e-01
3.091325945739396008e-01
3.091325945739396008e-01
2.949942682460833243e-01
2.949942682460833243e-01
2.949942682460833243e-01
2.846771111960260114e-01
2.846771111960260114e-01
2.800917080626671996e-01
2.800917080626671996e-01
2.800917080626671996e-01
2.758884218570882840e-01
2.758884218570882840e-01
2.766526557126480768e-01
2.766526557126480768e-01
2.766526557126480768e-01
2.808559419182269923e-01
2.808559419182269923e-01
2.663354986625907639e-01
2.663354986625907639e-01
2.739778372181887467e-01
2.739778372181887467e-01
2.739778372181887467e-01
2.709209017959495758e-01
2.709209017959495758e-01
2.651891478792510748e-01
2.651891478792510748e-01
2.651891478792510748e-01
2.793274742071073513e-01
2.793274742071073513e-01
2.747420710737485394e-01
2.747420710737485394e-01
2.747420710737485394e-01
2.571646923958731401e-01
2.571646923958731401e-01
2.781811234237676622e-01
2.781811234237676622e-01
2.781811234237676622e-01
2.747420710737485394e-01
2.747420710737485394e-01
2.472296522735957236e-01
2.472296522735957236e-01
2.472296522735957236e-01
2.720672525792892649e-01
2.720672525792892649e-01
2.686282002292701421e-01
2.686282002292701421e-01
2.686282002292701421e-01
2.724493695070691612e-01
2.724493695070691612e-01
2.709209017959495758e-01
2.709209017959495758e-01
2.709209017959495758e-01
2.724493695070691612e-01
2.724493695070691612e-01
2.690103171570500384e-01
2.690103171570500384e-01
2.690103171570500384e-01
2.495223538402751295e-01
2.495223538402751295e-01
2.407336645013374021e-01
2.407336645013374021e-01
2.407336645013374021e-01
2.460833014902560067e-01
2.460833014902560067e-01
2.571646923958731401e-01
2.571646923958731401e-01
2.571646923958731401e-01
2.361482613679785902e-01
2.361482613679785902e-01
2.621322124570118484e-01
2.621322124570118484e-01
2.621322124570118484e-01
2.376767290790982035e-01
2.376767290790982035e-01
2.659533817348108675e-01
2.659533817348108675e-01
2.659533817348108675e-01
2.342376767290791084e-01
2.342376767290791084e-01
2.636606801681314338e-01
2.636606801681314338e-01
2.636606801681314338e-01
2.376767290790982035e-01
2.376767290790982035e-01
2.369124952235384107e-01
2.369124952235384107e-01
2.369124952235384107e-01
2.422621322124570153e-01
2.422621322124570153e-01
2.334734428735192879e-01
2.334734428735192879e-01
2.334734428735192879e-01
2.296522735957202965e-01
2.296522735957202965e-01
2.541077569736339137e-01
2.541077569736339137e-01
2.541077569736339137e-01
2.502865876958349500e-01
2.502865876958349500e-01
2.407336645013374021e-01
2.407336645013374021e-01
2.407336645013374021e-01
2.537256400458540173e-01
2.537256400458540173e-01
2.510508215513947428e-01
2.510508215513947428e-01
2.510508215513947428e-01
2.407336645013374021e-01
2.407336645013374021e-01
2.307986243790599856e-01
2.307986243790599856e-01
2.307986243790599856e-01
2.220099350401222860e-01
2.220099350401222860e-01
2.334734428735192879e-01
2.334734428735192879e-01
2.334734428735192879e-01
2.342376767290791084e-01
2.342376767290791084e-01
2.208635842567825691e-01
2.208635842567825691e-01
2.208635842567825691e-01
2.300343905235001929e-01
2.300343905235001929e-01
2.353840275124187975e-01
2.353840275124187975e-01
2.353840275124187975e-01
2.120748949178448695e-01
2.120748949178448695e-01
2.101643102789453599e-01
2.101643102789453599e-01
2.101643102789453599e-01
2.128391287734046622e-01
2.128391287734046622e-01
2.285059228123805797e-01
2.285059228123805797e-01
2.285059228123805797e-01
2.265953381734810979e-01
2.265953381734810979e-01
1.998471532288880470e-01
1.998471532288880470e-01
1.998471532288880470e-01
2.082537256400458503e-01
2.082537256400458503e-01
2.086358425678257467e-01
2.086358425678257467e-01
2.086358425678257467e-01
1.990829193733282265e-01
1.990829193733282265e-01
1.880015284677111209e-01
1.880015284677111209e-01
1.880015284677111209e-01
1.883836453954910173e-01
1.883836453954910173e-01
1.880015284677111209e-01
1.880015284677111209e-01
1.880015284677111209e-01
1.891478792510508100e-01
1.891478792510508100e-01
1.887657623232709136e-01
1.887657623232709136e-01
1.887657623232709136e-01
1.780664883454337044e-01
1.780664883454337044e-01
2.002292701566679434e-01
2.002292701566679434e-01
2.002292701566679434e-01
1.922048146732900364e-01
1.922048146732900364e-01
1.815055406954527994e-01
1.815055406954527994e-01
1.815055406954527994e-01
1.669850974398165711e-01
1.669850974398165711e-01
1.654566297286969856e-01
1.654566297286969856e-01
1.654566297286969856e-01
1.627818112342376833e-01
1.627818112342376833e-01
1.608712265953381737e-01
1.608712265953381737e-01
1.608712265953381737e-01
1.792128391287733935e-01
1.792128391287733935e-01
1.627818112342376833e-01
1.627818112342376833e-01
1.627818112342376833e-01
1.807413068398930067e-01
1.807413068398930067e-01
1.574321742453190787e-01
1.574321742453190787e-01
1.574321742453190787e-01
1.478792510508215585e-01
1.478792510508215585e-01
1.696599159342759011e-01
1.696599159342759011e-01
1.696599159342759011e-01
1.528467711119602668e-01
1.528467711119602668e-01
1.432938479174627466e-01
1.432938479174627466e-01
1.432938479174627466e-01
1.520825372564004463e-01
1.520825372564004463e-01
1.654566297286969856e-01
1.654566297286969856e-01
1.654566297286969856e-01
1.367978601452044252e-01
1.367978601452044252e-01
1.325945739396255374e-01
1.325945739396255374e-01
1.325945739396255374e-01
1.322124570118456133e-01
1.322124570118456133e-01
1.505540695452808608e-01
1.505540695452808608e-01
1.505540695452808608e-01
1.299197554451662073e-01
1.299197554451662073e-01
1.436759648452426430e-01
1.436759648452426430e-01
1.310661062285059242e-01
1.310661062285059242e-01
1.310661062285059242e-01
1.413832632785632371e-01
1.413832632785632371e-01
1.364157432174245288e-01
1.364157432174245288e-01
1.364157432174245288e-01
1.176920137562093988e-01
1.176920137562093988e-01
1.364157432174245288e-01
1.364157432174245288e-01
1.364157432174245288e-01
1.127244936950706905e-01
1.127244936950706905e-01
1.104317921283912846e-01
1.104317921283912846e-01
1.104317921283912846e-01
1.390905617118838311e-01
1.390905617118838311e-01
1.329766908674054338e-01
1.329766908674054338e-01
1.329766908674054338e-01
1.299197554451662073e-01
1.299197554451662073e-01
1.348872755063049156e-01
1.348872755063049156e-01
1.348872755063049156e-01
1.245701184562476166e-01
1.245701184562476166e-01
1.303018723729461315e-01
1.303018723729461315e-01
1.303018723729461315e-01
1.111960259839510912e-01
1.111960259839510912e-01
1.150171952617500964e-01
1.150171952617500964e-01
1.150171952617500964e-01
1.303018723729461315e-01
1.303018723729461315e-01
1.196025983951089083e-01
1.196025983951089083e-01
1.196025983951089083e-01
9.667558272831486277e-02
9.667558272831486277e-02
9.247229652273596112e-02
9.247229652273596112e-02
9.247229652273596112e-02
1.215131830340084040e-01
1.215131830340084040e-01
1.069927397783721756e-01
1.069927397783721756e-01
1.069927397783721756e-01
9.400076423385556046e-02
9.400076423385556046e-02
8.750477646159725287e-02
8.750477646159725287e-02
8.750477646159725287e-02
9.017959495605655518e-02
9.017959495605655518e-02
1.039358043561329770e-01
1.039358043561329770e-01
1.039358043561329770e-01
1.058463889950324865e-01
1.058463889950324865e-01
1.111960259839510912e-01
1.111960259839510912e-01
1.111960259839510912e-01
1.024073366450133776e-01
1.024073366450133776e-01
1.031715705005731704e-01
1.031715705005731704e-01
1.031715705005731704e-01
9.017959495605655518e-02
9.017959495605655518e-02
9.667558272831486277e-02
9.667558272831486277e-02
9.667558272831486277e-02
8.139090561711884164e-02
8.139090561711884164e-02
9.438288116163545682e-02
9.438288116163545682e-02
9.438288116163545682e-02
7.948032097821933206e-02
7.948032097821933206e-02
8.215513947267863437e-02
8.215513947267863437e-02
8.215513947267863437e-02
7.948032097821933206e-02
7.948032097821933206e-02
7.565915170042032678e-02
7.565915170042032678e-02
7.565915170042032678e-02
7.986243790599924230e-02
7.986243790599924230e-02
8.788689338937714923e-02
8.788689338937714923e-02
8.788689338937714923e-02
6.954528085594191555e-02
6.954528085594191555e-02
8.674054260603744626e-02
8.674054260603744626e-02
8.674054260603744626e-02
8.903324417271685220e-02
8.903324417271685220e-02
8.024455483377913867e-02
8.024455483377913867e-02
8.024455483377913867e-02
7.833397019487962909e-02
7.833397019487962909e-02
6.954528085594191555e-02
6.954528085594191555e-02
6.954528085594191555e-02
9.476499808941536707e-02
9.476499808941536707e-02
7.527703477264043042e-02
7.527703477264043042e-02
7.527703477264043042e-02
8.062667176155903503e-02
8.062667176155903503e-02
9.552923194497515980e-02
9.552923194497515980e-02
9.552923194497515980e-02
7.374856706152083108e-02
7.374856706152083108e-02
8.444784103935804032e-02
8.444784103935804032e-02
8.444784103935804032e-02
7.298433320596102447e-02
7.298433320596102447e-02
9.361864730607566409e-02
9.361864730607566409e-02
9.361864730607566409e-02
7.680550248376002975e-02
7.680550248376002975e-02
7.336645013374092084e-02
7.336645013374092084e-02
7.336645013374092084e-02
8.750477646159725287e-02
8.750477646159725287e-02
9.743981658387466938e-02
9.743981658387466938e-02
9.743981658387466938e-02
7.183798242262132150e-02
7.183798242262132150e-02
7.451280091708062381e-02
7.451280091708062381e-02
7.451280091708062381e-02
7.298433320596102447e-02
7.298433320596102447e-02
8.788689338937714923e-02
8.788689338937714923e-02
8.788689338937714923e-02
7.527703477264043042e-02
7.527703477264043042e-02
7.298433320596102447e-02
7.298433320596102447e-02
7.298433320596102447e-02
9.629346580053496640e-02
9.629346580053496640e-02
8.444784103935804032e-02
8.444784103935804032e-02
8.444784103935804032e-02
7.795185326709973272e-02
7.795185326709973272e-02
9.629346580053496640e-02
9.629346580053496640e-02
9.629346580053496640e-02
7.260221627818112811e-02
7.260221627818112811e-02
1.012609858616736747e-01
1.012609858616736747e-01
1.012609858616736747e-01
8.750477646159725287e-02
8.750477646159725287e-02
8.368360718379824759e-02
8.368360718379824759e-02
8.368360718379824759e-02
8.139090561711884164e-02
8.139090561711884164e-02
7.642338555598013339e-02
7.642338555598013339e-02
7.642338555598013339e-02
7.489491784486053405e-02
7.489491784486053405e-02
1.043179212839128733e-01
1.043179212839128733e-01
1.043179212839128733e-01
7.680550248376002975e-02
7.680550248376002975e-02
9.552923194497515980e-02
9.552923194497515980e-02
9.552923194497515980e-02
7.680550248376002975e-02
7.680550248376002975e-02
9.017959495605655518e-02
9.017959495605655518e-02
9.017959495605655518e-02
9.667558272831486277e-02
9.667558272831486277e-02
1.016431027894535710e-01
1.016431027894535710e-01
1.016431027894535710e-01
1.123423767672907941e-01
1.123423767672907941e-01
1.077569736339319822e-01
1.077569736339319822e-01
8.750477646159725287e-02
8.750477646159725287e-02
8.750477646159725287e-02
1.115781429117309875e-01
1.115781429117309875e-01
1.153993121895299928e-01
1.153993121895299928e-01
1.153993121895299928e-01
9.743981658387466938e-02
9.743981658387466938e-02
1.100496752006113882e-01
1.100496752006113882e-01
1.100496752006113882e-01
1.306839893007260278e-01
1.306839893007260278e-01
1.134887275506304971e-01
1.134887275506304971e-01
1.134887275506304971e-01
1.161635460450897994e-01
1.161635460450897994e-01
1.367978601452044252e-01
1.367978601452044252e-01
1.367978601452044252e-01
1.337409247229652265e-01
1.337409247229652265e-01
1.482613679786014549e-01
1.482613679786014549e-01
1.482613679786014549e-01
1.719526175009552793e-01
1.719526175009552793e-01
1.788307222009934971e-01
1.788307222009934971e-01
1.788307222009934971e-01
1.799770729843332140e-01
1.799770729843332140e-01
2.025219717233473493e-01
2.025219717233473493e-01
2.025219717233473493e-01
1.983186855177684338e-01
1.983186855177684338e-01
2.105464272067252562e-01
2.105464272067252562e-01
2.105464272067252562e-01
2.338555598012991843e-01
2.338555598012991843e-01
2.365303782957585144e-01
2.365303782957585144e-01
2.365303782957585144e-01
2.648070309514711229e-01
2.648070309514711229e-01
2.628964463125716411e-01
2.628964463125716411e-01
2.628964463125716411e-01
3.026366068016813071e-01
3.026366068016813071e-01
2.846771111960260114e-01
2.846771111960260114e-01
2.846771111960260114e-01
3.225066870462361401e-01
3.225066870462361401e-01
3.091325945739396008e-01
3.091325945739396008e-01
3.091325945739396008e-01
3.228888039740160365e-01
3.228888039740160365e-01
3.553687428353076161e-01
3.553687428353076161e-01
3.553687428353076161e-01
3.568972105464272015e-01
3.568972105464272015e-01
3.572793274742070979e-01
3.572793274742070979e-01
3.572793274742070979e-01
3.828811616354604319e-01
3.828811616354604319e-01
3.782957585021016200e-01
3.782957585021016200e-01
3.782957585021016200e-01
4.111578142911730960e-01
4.111578142911730960e-01
4.268246083301490135e-01
4.268246083301490135e-01
4.268246083301490135e-01
4.272067252579289098e-01
4.272067252579289098e-01
4.359954145968666372e-01
4.359954145968666372e-01
4.359954145968666372e-01
4.306457776079480326e-01
4.306457776079480326e-01
4.508979747802827620e-01
4.508979747802827620e-01
4.508979747802827620e-01
4.436377531524646756e-01
4.436377531524646756e-01
4.405808177302254491e-01
4.405808177302254491e-01
4.405808177302254491e-01
4.635078333970195086e-01
4.635078333970195086e-01
4.486052732136033838e-01
4.486052732136033838e-01
4.486052732136033838e-01
4.742071073748567178e-01
4.742071073748567178e-01
4.566297286969812630e-01
4.566297286969812630e-01
4.566297286969812630e-01
4.619793656858998676e-01
4.619793656858998676e-01
4.742071073748567178e-01
4.742071073748567178e-01
4.742071073748567178e-01
4.764998089415360960e-01
4.764998089415360960e-01
4.703859380970576987e-01
4.703859380970576987e-01
4.703859380970576987e-01
4.730607565915170287e-01
4.730607565915170287e-01
4.742071073748567178e-01
4.742071073748567178e-01
4.742071073748567178e-01
4.684753534581582168e-01
4.684753534581582168e-01
4.849063813526939271e-01
4.849063813526939271e-01
4.849063813526939271e-01
4.849063813526939271e-01
4.849063813526939271e-01
4.856706152082537198e-01
4.856706152082537198e-01
4.856706152082537198e-01
4.787925105082155297e-01
4.787925105082155297e-01
4.757355750859763033e-01
4.757355750859763033e-01
4.757355750859763033e-01
4.745892243026366142e-01
4.745892243026366142e-01
4.902560183416125317e-01
4.902560183416125317e-01
4.902560183416125317e-01
4.967520061138708254e-01
4.967520061138708254e-01
4.707680550248375950e-01
4.707680550248375950e-01
4.707680550248375950e-01
4.975162399694306181e-01
4.975162399694306181e-01
4.818494459304547006e-01
4.818494459304547006e-01
4.818494459304547006e-01
4.787925105082155297e-01
4.787925105082155297e-01
4.654184180359189904e-01
4.654184180359189904e-01
4.654184180359189904e-01
4.849063813526939271e-01
4.849063813526939271e-01
4.665647688192586795e-01
4.665647688192586795e-01
4.665647688192586795e-01
4.814673290026748043e-01
4.814673290026748043e-01
4.807030951471150115e-01
4.807030951471150115e-01
4.807030951471150115e-01
4.558654948414214703e-01
4.558654948414214703e-01
4.726786396637370768e-01
4.726786396637370768e-01
4.726786396637370768e-01
4.440198700802445719e-01
4.440198700802445719e-01
4.692395873137180096e-01
4.692395873137180096e-01
4.692395873137180096e-01
4.638899503247994049e-01
4.638899503247994049e-01
4.359954145968666372e-01
4.359954145968666372e-01
4.359954145968666372e-01
4.379059992357661191e-01
4.379059992357661191e-01
4.401987008024455528e-01
4.401987008024455528e-01
4.401987008024455528e-01
4.363775315246465336e-01
4.363775315246465336e-01
4.421092854413450346e-01
4.421092854413450346e-01
4.421092854413450346e-01
4.409629346580053455e-01
4.409629346580053455e-01
4.272067252579289098e-01
4.272067252579289098e-01
4.272067252579289098e-01
4.195643867023309270e-01
4.195643867023309270e-01
4.298815437523882399e-01
4.298815437523882399e-01
4.027512418800152649e-01
4.027512418800152649e-01
4.027512418800152649e-01
4.184180359189912379e-01
4.184180359189912379e-01
4.092472296522736142e-01
4.092472296522736142e-01
4.092472296522736142e-01
3.928162017577378484e-01
3.928162017577378484e-01
3.935804356132976967e-01
3.935804356132976967e-01
3.935804356132976967e-01
4.069545280855941805e-01
4.069545280855941805e-01
3.951089033244172821e-01
