2.120748949178448695e-01
1.998471532288880470e-01
1.998471532288880470e-01
1.998471532288880470e-01
2.071073748567061612e-01
2.071073748567061612e-01
1.983186855177684338e-01
1.983186855177684338e-01
1.983186855177684338e-01
2.151318303400840681e-01
2.151318303400840681e-01
1.971723347344287447e-01
1.971723347344287447e-01
1.971723347344287447e-01
1.990829193733282265e-01
1.990829193733282265e-01
2.074894917844860576e-01
2.074894917844860576e-01
2.074894917844860576e-01
1.941153993121895183e-01
1.941153993121895183e-01
1.971723347344287447e-01
1.971723347344287447e-01
1.971723347344287447e-01
2.021398547955674529e-01
2.021398547955674529e-01
1.948796331677493388e-01
1.948796331677493388e-01
2.048146732900267553e-01
2.048146732900267553e-01
2.048146732900267553e-01
1.994650363011081506e-01
1.994650363011081506e-01
1.929690485288498292e-01
1.929690485288498292e-01
1.929690485288498292e-01
2.021398547955674529e-01
2.021398547955674529e-01
1.895299961788307341e-01
1.895299961788307341e-01
1.895299961788307341e-01
1.937332823844096219e-01
1.937332823844096219e-01
1.891478792510508100e-01
1.891478792510508100e-01
1.891478792510508100e-01
1.952617500955292351e-01
1.952617500955292351e-01
1.887657623232709136e-01
1.887657623232709136e-01
1.887657623232709136e-01
1.864730607565915077e-01
1.864730607565915077e-01
1.822697745510126199e-01
1.822697745510126199e-01
1.822697745510126199e-01
1.857088269010317150e-01
1.857088269010317150e-01
1.811234237676729031e-01
1.811234237676729031e-01
1.811234237676729031e-01
2.044325563622468589e-01
2.044325563622468589e-01
1.853267099732518186e-01
1.853267099732518186e-01
1.853267099732518186e-01
1.841803591899121018e-01
1.841803591899121018e-01
1.899121131066106305e-01
1.899121131066106305e-01
1.899121131066106305e-01
1.944975162399694424e-01
1.944975162399694424e-01
1.956438670233091315e-01
1.956438670233091315e-01
1.956438670233091315e-01
1.780664883454337044e-01
1.780664883454337044e-01
1.792128391287733935e-01
1.792128391287733935e-01
1.792128391287733935e-01
1.826518914787925163e-01
1.826518914787925163e-01
1.902942300343905269e-01
1.902942300343905269e-01
1.902942300343905269e-01
1.895299961788307341e-01
1.895299961788307341e-01
1.902942300343905269e-01
1.902942300343905269e-01
1.902942300343905269e-01
1.872372946121513282e-01
1.872372946121513282e-01
1.780664883454337044e-01
1.780664883454337044e-01
1.780664883454337044e-01
1.822697745510126199e-01
1.822697745510126199e-01
1.830340084065724127e-01
1.830340084065724127e-01
1.830340084065724127e-01
1.704241497898356938e-01
1.704241497898356938e-01
1.650745128009170892e-01
1.650745128009170892e-01
1.650745128009170892e-01
1.807413068398930067e-01
1.807413068398930067e-01
1.658387466564768820e-01
1.658387466564768820e-01
1.658387466564768820e-01
1.654566297286969856e-01
1.654566297286969856e-01
1.719526175009552793e-01
1.719526175009552793e-01
1.719526175009552793e-01
1.643102789453572687e-01
1.643102789453572687e-01
1.788307222009934971e-01
1.788307222009934971e-01
1.788307222009934971e-01
1.727168513565150998e-01
1.727168513565150998e-01
1.513183034008406536e-01
1.513183034008406536e-01
1.513183034008406536e-01
1.650745128009170892e-01
1.650745128009170892e-01
1.631639281620175796e-01
1.631639281620175796e-01
1.631639281620175796e-01
1.708062667176155902e-01
1.708062667176155902e-01
1.585785250286587678e-01
1.585785250286587678e-01
1.585785250286587678e-01
1.639281620175773724e-01
1.639281620175773724e-01
1.631639281620175796e-01
1.631639281620175796e-01
1.631639281620175796e-01
1.547573557508597764e-01
1.547573557508597764e-01
1.604891096675582773e-01
1.604891096675582773e-01
1.604891096675582773e-01
1.505540695452808608e-01
1.505540695452808608e-01
1.623996943064577869e-01
1.623996943064577869e-01
1.623996943064577869e-01
1.494077187619411440e-01
1.494077187619411440e-01
1.574321742453190787e-01
1.574321742453190787e-01
1.574321742453190787e-01
1.562858234619793618e-01
1.562858234619793618e-01
1.532288880397401631e-01
1.532288880397401631e-01
1.532288880397401631e-01
1.410011463507833407e-01
1.410011463507833407e-01
1.383263278563240384e-01
1.383263278563240384e-01
1.383263278563240384e-01
1.364157432174245288e-01
1.364157432174245288e-01
1.474971341230416622e-01
1.474971341230416622e-01
1.474971341230416622e-01
1.406190294230034443e-01
1.406190294230034443e-01
1.532288880397401631e-01
1.532288880397401631e-01
1.532288880397401631e-01
1.474971341230416622e-01
1.474971341230416622e-01
1.364157432174245288e-01
1.364157432174245288e-01
1.364157432174245288e-01
1.341230416507451229e-01
1.341230416507451229e-01
1.425296140619029539e-01
1.425296140619029539e-01
1.425296140619029539e-01
1.474971341230416622e-01
1.474971341230416622e-01
1.436759648452426430e-01
1.436759648452426430e-01
1.436759648452426430e-01
1.364157432174245288e-01
1.364157432174245288e-01
1.352693924340848397e-01
1.352693924340848397e-01
1.352693924340848397e-01
1.417653802063431334e-01
1.417653802063431334e-01
1.421474971341230298e-01
1.421474971341230298e-01
1.421474971341230298e-01
1.406190294230034443e-01
1.406190294230034443e-01
1.406190294230034443e-01
1.406190294230034443e-01
1.406190294230034443e-01
1.245701184562476166e-01
1.245701184562476166e-01
1.318303400840657169e-01
1.318303400840657169e-01
1.318303400840657169e-01
1.283912877340466219e-01
1.283912877340466219e-01
1.260985861673672159e-01
1.260985861673672159e-01
1.260985861673672159e-01
1.234237676729079136e-01
1.234237676729079136e-01
1.161635460450897994e-01
1.161635460450897994e-01
1.161635460450897994e-01
1.207489491784486113e-01
1.207489491784486113e-01
1.184562476117692054e-01
1.184562476117692054e-01
1.184562476117692054e-01
1.287734046618265182e-01
1.287734046618265182e-01
1.329766908674054338e-01
1.329766908674054338e-01
1.329766908674054338e-01
1.352693924340848397e-01
1.352693924340848397e-01
1.211310661062285077e-01
1.211310661062285077e-01
1.398547955674436516e-01
1.398547955674436516e-01
1.398547955674436516e-01
1.176920137562093988e-01
1.176920137562093988e-01
1.222774168895682106e-01
1.222774168895682106e-01
1.222774168895682106e-01
1.367978601452044252e-01
1.367978601452044252e-01
1.226595338173481070e-01
1.226595338173481070e-01
1.226595338173481070e-01
1.314482231562858205e-01
1.314482231562858205e-01
1.222774168895682106e-01
1.222774168895682106e-01
1.222774168895682106e-01
1.360336262896446324e-01
1.360336262896446324e-01
1.184562476117692054e-01
1.184562476117692054e-01
1.184562476117692054e-01
1.192204814673289981e-01
1.192204814673289981e-01
1.303018723729461315e-01
1.303018723729461315e-01
1.303018723729461315e-01
1.264807030951471123e-01
1.264807030951471123e-01
1.203668322506687011e-01
1.203668322506687011e-01
1.203668322506687011e-01
1.260985861673672159e-01
1.260985861673672159e-01
1.180741306839892951e-01
1.180741306839892951e-01
1.180741306839892951e-01
1.196025983951089083e-01
1.196025983951089083e-01
1.142529614061902898e-01
1.142529614061902898e-01
1.142529614061902898e-01
1.306839893007260278e-01
1.306839893007260278e-01
1.173098968284295024e-01
1.173098968284295024e-01
1.173098968284295024e-01
1.207489491784486113e-01
1.207489491784486113e-01
1.329766908674054338e-01
1.329766908674054338e-01
1.329766908674054338e-01
1.218952999617883004e-01
1.218952999617883004e-01
1.352693924340848397e-01
1.352693924340848397e-01
1.352693924340848397e-01
1.192204814673289981e-01
1.192204814673289981e-01
1.161635460450897994e-01
1.161635460450897994e-01
1.161635460450897994e-01
1.238058846006878100e-01
1.238058846006878100e-01
1.345051585785250192e-01
1.345051585785250192e-01
1.345051585785250192e-01
1.325945739396255374e-01
1.325945739396255374e-01
1.150171952617500964e-01
1.150171952617500964e-01
1.150171952617500964e-01
1.134887275506304971e-01
1.134887275506304971e-01
1.165456629728696958e-01
1.165456629728696958e-01
1.165456629728696958e-01
1.226595338173481070e-01
1.226595338173481070e-01
1.314482231562858205e-01
1.314482231562858205e-01
1.314482231562858205e-01
1.367978601452044252e-01
1.367978601452044252e-01
1.226595338173481070e-01
1.226595338173481070e-01
1.226595338173481070e-01
1.123423767672907941e-01
1.123423767672907941e-01
1.215131830340084040e-01
1.215131830340084040e-01
1.215131830340084040e-01
1.165456629728696958e-01
1.165456629728696958e-01
1.226595338173481070e-01
1.226595338173481070e-01
1.226595338173481070e-01
1.211310661062285077e-01
1.211310661062285077e-01
1.123423767672907941e-01
1.123423767672907941e-01
1.123423767672907941e-01
1.127244936950706905e-01
1.127244936950706905e-01
1.280091708062667255e-01
1.280091708062667255e-01
1.280091708062667255e-01
1.264807030951471123e-01
1.264807030951471123e-01
1.119602598395108839e-01
1.119602598395108839e-01
1.119602598395108839e-01
1.173098968284295024e-01
1.173098968284295024e-01
1.207489491784486113e-01
1.207489491784486113e-01
1.207489491784486113e-01
1.096675582728314918e-01
1.096675582728314918e-01
1.253343523118074232e-01
1.253343523118074232e-01
1.253343523118074232e-01
1.169277799006495921e-01
1.169277799006495921e-01
1.081390905617118786e-01
1.081390905617118786e-01
1.081390905617118786e-01
1.043179212839128733e-01
1.043179212839128733e-01
1.173098968284295024e-01
1.173098968284295024e-01
1.173098968284295024e-01
1.218952999617883004e-01
1.218952999617883004e-01
1.043179212839128733e-01
1.043179212839128733e-01
1.043179212839128733e-01
1.260985861673672159e-01
1.260985861673672159e-01
1.272449369507069050e-01
1.272449369507069050e-01
1.272449369507069050e-01
1.131066106228505869e-01
1.131066106228505869e-01
1.180741306839892951e-01
1.180741306839892951e-01
1.180741306839892951e-01
1.173098968284295024e-01
1.173098968284295024e-01
1.016431027894535710e-01
1.016431027894535710e-01
1.016431027894535710e-01
1.264807030951471123e-01
1.264807030951471123e-01
1.062285059228123829e-01
1.062285059228123829e-01
1.062285059228123829e-01
1.035536874283530806e-01
1.035536874283530806e-01
1.226595338173481070e-01
1.226595338173481070e-01
1.226595338173481070e-01
1.134887275506304971e-01
1.134887275506304971e-01
1.176920137562093988e-01
1.176920137562093988e-01
1.176920137562093988e-01
1.108139090561711948e-01
1.108139090561711948e-01
1.108139090561711948e-01
1.108139090561711948e-01
1.108139090561711948e-01
1.073748567061520859e-01
1.073748567061520859e-01
1.245701184562476166e-01
1.245701184562476166e-01
1.245701184562476166e-01
1.325945739396255374e-01
1.325945739396255374e-01
1.367978601452044252e-01
1.367978601452044252e-01
1.367978601452044252e-01
1.287734046618265182e-01
1.287734046618265182e-01
1.287734046618265182e-01
1.287734046618265182e-01
1.287734046618265182e-01
1.482613679786014549e-01
1.482613679786014549e-01
1.562858234619793618e-01
1.562858234619793618e-01
1.562858234619793618e-01
1.486434849063813513e-01
1.486434849063813513e-01
1.513183034008406536e-01
1.513183034008406536e-01
1.513183034008406536e-01
1.681314482231562879e-01
1.681314482231562879e-01
1.696599159342759011e-01
1.696599159342759011e-01
1.987008024455483302e-01
1.987008024455483302e-01
1.987008024455483302e-01
1.883836453954910173e-01
1.883836453954910173e-01
2.120748949178448695e-01
2.120748949178448695e-01
2.120748949178448695e-01
2.136033626289644549e-01
2.136033626289644549e-01
2.315628582346198061e-01
2.315628582346198061e-01
2.315628582346198061e-01
2.506687046236148464e-01
2.506687046236148464e-01
2.464654184180359309e-01
2.464654184180359309e-01
2.464654184180359309e-01
2.544898739014138100e-01
2.544898739014138100e-01
2.823844096293465777e-01
2.823844096293465777e-01
2.823844096293465777e-01
2.762705387848681804e-01
2.762705387848681804e-01
2.904088651127245124e-01
2.904088651127245124e-01
2.904088651127245124e-01
3.114252961406190345e-01
3.114252961406190345e-01
3.232709209017959329e-01
3.232709209017959329e-01
3.232709209017959329e-01
3.397019487963316986e-01
3.397019487963316986e-01
3.427588842185708695e-01
3.427588842185708695e-01
3.427588842185708695e-01
3.530760412686281824e-01
3.530760412686281824e-01
3.584256782575467870e-01
3.584256782575467870e-01
3.584256782575467870e-01
3.870844478410393474e-01
3.870844478410393474e-01
3.912877340466182630e-01
3.912877340466182630e-01
3.912877340466182630e-01
4.096293465800535105e-01
4.096293465800535105e-01
4.084829957967138214e-01
4.084829957967138214e-01
4.084829957967138214e-01
4.111578142911730960e-01
4.111578142911730960e-01
4.188001528467711343e-01
4.188001528467711343e-01
4.188001528467711343e-01
4.417271685135651382e-01
4.417271685135651382e-01
4.398165838746656564e-01
4.398165838746656564e-01
4.398165838746656564e-01
4.589224302636606967e-01
4.589224302636606967e-01
4.489873901413832802e-01
4.489873901413832802e-01
4.489873901413832802e-01
4.543370271303018848e-01
4.543370271303018848e-01
4.600687810470003858e-01
4.600687810470003858e-01
4.600687810470003858e-01
4.761176920137561996e-01
4.761176920137561996e-01
4.787925105082155297e-01
4.787925105082155297e-01
4.787925105082155297e-01
4.730607565915170287e-01
4.730607565915170287e-01
4.814673290026748043e-01
4.814673290026748043e-01
4.814673290026748043e-01
4.722965227359571805e-01
4.722965227359571805e-01
4.795567443637753224e-01
4.795567443637753224e-01
4.795567443637753224e-01
4.814673290026748043e-01
4.814673290026748043e-01
4.780282766526557370e-01
4.780282766526557370e-01
4.780282766526557370e-01
4.925487199082919099e-01
4.925487199082919099e-01
4.925487199082919099e-01
4.925487199082919099e-01
4.925487199082919099e-01
4.952235384027512399e-01
4.952235384027512399e-01
4.764998089415360960e-01
4.764998089415360960e-01
4.764998089415360960e-01
4.887275506304929462e-01
4.887275506304929462e-01
4.875811998471532016e-01
4.875811998471532016e-01
4.875811998471532016e-01
4.917844860527321171e-01
4.917844860527321171e-01
4.925487199082919099e-01
4.925487199082919099e-01
4.925487199082919099e-01
4.875811998471532016e-01
4.875811998471532016e-01
4.829957967137944452e-01
4.829957967137944452e-01
4.829957967137944452e-01
4.849063813526939271e-01
4.849063813526939271e-01
4.719144058081772841e-01
4.719144058081772841e-01
4.719144058081772841e-01
4.822315628582345970e-01
4.822315628582345970e-01
4.837600305693542380e-01
4.837600305693542380e-01
4.837600305693542380e-01
4.833779136415743416e-01
4.833779136415743416e-01
4.608330149025601785e-01
4.608330149025601785e-01
4.608330149025601785e-01
4.665647688192586795e-01
4.665647688192586795e-01
4.612151318303400749e-01
4.612151318303400749e-01
4.612151318303400749e-01
4.593045471914405931e-01
4.593045471914405931e-01
4.600687810470003858e-01
4.600687810470003858e-01
4.600687810470003858e-01
4.734428735192969251e-01
4.734428735192969251e-01
4.596866641192204894e-01
4.596866641192204894e-01
4.596866641192204894e-01
4.661826518914787831e-01
4.661826518914787831e-01
4.596866641192204894e-01
4.596866641192204894e-01
4.596866641192204894e-01
4.604508979747802822e-01
4.604508979747802822e-01
4.585403133358808003e-01
4.585403133358808003e-01
4.585403133358808003e-01
4.428735192969048273e-01
4.428735192969048273e-01
4.466946885747038465e-01
4.466946885747038465e-01
4.466946885747038465e-01
4.470768055024837428e-01
4.470768055024837428e-01
4.413450515857852419e-01
4.413450515857852419e-01
4.413450515857852419e-01
4.390523500191058637e-01
4.390523500191058637e-01
4.375238823079862227e-01
4.375238823079862227e-01
4.375238823079862227e-01
4.493695070691631765e-01
4.493695070691631765e-01
4.489873901413832802e-01
4.489873901413832802e-01
4.489873901413832802e-01
4.317921283912877217e-01
4.317921283912877217e-01
4.222392051967902016e-01
4.222392051967902016e-01
4.222392051967902016e-01
4.325563622468475145e-01
4.325563622468475145e-01
4.356132976690867409e-01
4.356132976690867409e-01
4.356132976690867409e-01
4.237676729079098426e-01
4.237676729079098426e-01
4.191822697745510307e-01
4.191822697745510307e-01
4.191822697745510307e-01
4.207107374856706161e-01
4.207107374856706161e-01
4.283530760412686544e-01
4.283530760412686544e-01
4.283530760412686544e-01
4.165074512800917006e-01
4.165074512800917006e-01
4.061902942300343877e-01
4.061902942300343877e-01
4.077187619411539732e-01
4.077187619411539732e-01
4.077187619411539732e-01
4.084829957967138214e-01
4.084829957967138214e-01
4.199465036301108234e-01
4.199465036301108234e-01
4.199465036301108234e-01
4.038975926633550095e-01
4.038975926633550095e-01
4.107756973633931996e-01
4.107756973633931996e-01
4.107756973633931996e-01
3.943446694688574894e-01
3.943446694688574894e-01
3.943446694688574894e-01
3.943446694688574894e-01
3.943446694688574894e-01
4.073366450133740768e-01
4.073366450133740768e-01
3.985479556744364049e-01
3.985479556744364049e-01
3.985479556744364049e-01
3.966373710355368676e-01
3.966373710355368676e-01
3.974016048910966603e-01
3.974016048910966603e-01
3.974016048910966603e-01
3.771494077187619309e-01
3.771494077187619309e-01
3.909056171188383666e-01
3.909056171188383666e-01
3.909056171188383666e-01
3.786778754298815164e-01
3.786778754298815164e-01
3.832632785632403283e-01
3.832632785632403283e-01
3.832632785632403283e-01
3.832632785632403283e-01
3.832632785632403283e-01
3.614826136797860134e-01
3.614826136797860134e-01
3.614826136797860134e-01
3.565150936186473052e-01
3.565150936186473052e-01
3.591899121131066352e-01
3.591899121131066352e-01
3.591899121131066352e-01
3.599541459686664280e-01
3.599541459686664280e-01
3.572793274742070979e-01
3.572793274742070979e-01
3.572793274742070979e-01
3.397019487963316986e-01
3.397019487963316986e-01
3.549866259075277197e-01
3.549866259075277197e-01
3.549866259075277197e-01
3.293847917462743857e-01
3.293847917462743857e-01
3.332059610240733494e-01
3.332059610240733494e-01
3.332059610240733494e-01
3.240351547573557256e-01
3.240351547573557256e-01
3.343523118074130940e-01
3.343523118074130940e-01
3.343523118074130940e-01
3.244172716851356775e-01
3.244172716851356775e-01
3.167749331295376392e-01
3.167749331295376392e-01
3.167749331295376392e-01
3.022544898739014108e-01
3.022544898739014108e-01
3.076041268628200154e-01
3.076041268628200154e-01
3.076041268628200154e-01
3.041650745128008926e-01
3.041650745128008926e-01
3.045471914405808445e-01
3.045471914405808445e-01
3.045471914405808445e-01
2.873519296904852860e-01
2.873519296904852860e-01
2.789453572793274549e-01
2.789453572793274549e-01
2.789453572793274549e-01
2.777990064959877659e-01
2.777990064959877659e-01
2.663354986625907639e-01
2.663354986625907639e-01
2.663354986625907639e-01
2.663354986625907639e-01
2.663354986625907639e-01
2.609858616736721593e-01
2.609858616736721593e-01
2.609858616736721593e-01
2.739778372181887467e-01
2.739778372181887467e-01
2.521971723347344319e-01
2.521971723347344319e-01
2.521971723347344319e-01
2.579289262514329328e-01
2.579289262514329328e-01
2.609858616736721593e-01
2.609858616736721593e-01
2.609858616736721593e-01
2.518150554069545355e-01
2.518150554069545355e-01
2.464654184180359309e-01
2.464654184180359309e-01
2.464654184180359309e-01
2.407336645013374021e-01
2.407336645013374021e-01
2.453190676346962140e-01
2.453190676346962140e-01
2.453190676346962140e-01
2.380588460068780998e-01
2.380588460068780998e-01
2.564004585403133474e-01
2.564004585403133474e-01
2.564004585403133474e-01
2.411157814291172985e-01
2.411157814291172985e-01
2.292701566679404002e-01
2.292701566679404002e-01
2.292701566679404002e-01
2.246847535345815883e-01
2.246847535345815883e-01
2.449369507069163177e-01
2.449369507069163177e-01
2.449369507069163177e-01
2.178066488345433704e-01
2.178066488345433704e-01
2.330913259457393916e-01
2.330913259457393916e-01
2.330913259457393916e-01
2.350019105846389011e-01
2.350019105846389011e-01
2.189529996178830595e-01
2.189529996178830595e-01
2.189529996178830595e-01
2.307986243790599856e-01
2.307986243790599856e-01
2.151318303400840681e-01
2.151318303400840681e-01
2.151318303400840681e-01
2.204814673290026728e-01
2.204814673290026728e-01
2.307986243790599856e-01
2.307986243790599856e-01
2.307986243790599856e-01
2.334734428735192879e-01
2.334734428735192879e-01
2.243026366068016919e-01
2.243026366068016919e-01
2.243026366068016919e-01
2.227741688956820787e-01
2.227741688956820787e-01
2.155139472678639645e-01
2.155139472678639645e-01
2.155139472678639645e-01
2.101643102789453599e-01
2.101643102789453599e-01
2.311807413068398820e-01
2.311807413068398820e-01
2.311807413068398820e-01
2.189529996178830595e-01
2.189529996178830595e-01
2.327092090179594952e-01
2.327092090179594952e-01
2.327092090179594952e-01
2.204814673290026728e-01
2.204814673290026728e-01
2.113106610622850490e-01
2.113106610622850490e-01
2.113106610622850490e-01
2.116927779900649731e-01
2.116927779900649731e-01
2.097821933511654635e-01
2.097821933511654635e-01
2.097821933511654635e-01
2.181887657623232668e-01
2.181887657623232668e-01
2.136033626289644549e-01
2.136033626289644549e-01
2.136033626289644549e-01
2.132212457011845586e-01
2.132212457011845586e-01
2.116927779900649731e-01
2.116927779900649731e-01
2.116927779900649731e-01
2.193351165456629837e-01
2.193351165456629837e-01
2.185708826901031632e-01
2.185708826901031632e-01
2.185708826901031632e-01
2.220099350401222860e-01
2.220099350401222860e-01
2.258311043179212774e-01
2.258311043179212774e-01
2.258311043179212774e-01
2.193351165456629837e-01
2.193351165456629837e-01
2.185708826901031632e-01
2.185708826901031632e-01
2.071073748567061612e-01
2.071073748567061612e-01
2.071073748567061612e-01
2.147497134123041718e-01
2.147497134123041718e-01
2.208635842567825691e-01
2.208635842567825691e-01
2.208635842567825691e-01
2.090179594956056430e-01
2.090179594956056430e-01
2.032862055789071420e-01
2.032862055789071420e-01
2.032862055789071420e-01
2.036683225066870384e-01
2.036683225066870384e-01
2.124570118456247658e-01
2.124570118456247658e-01
2.124570118456247658e-01
1.990829193733282265e-01
1.990829193733282265e-01
2.147497134123041718e-01
2.147497134123041718e-01
2.147497134123041718e-01
1.975544516622086411e-01
1.975544516622086411e-01
2.013756209400076325e-01
2.013756209400076325e-01
2.013756209400076325e-01
2.036683225066870384e-01
2.036683225066870384e-01
2.097821933511654635e-01
2.097821933511654635e-01
2.097821933511654635e-01
1.975544516622086411e-01
1.975544516622086411e-01
2.025219717233473493e-01
2.025219717233473493e-01
2.025219717233473493e-01
1.902942300343905269e-01
1.902942300343905269e-01
1.906763469621704232e-01
1.906763469621704232e-01
1.906763469621704232e-01
1.914405808177302160e-01
1.914405808177302160e-01
1.845624761176920259e-01
1.845624761176920259e-01
1.845624761176920259e-01
1.811234237676729031e-01
1.811234237676729031e-01
1.971723347344287447e-01
1.971723347344287447e-01
1.971723347344287447e-01
1.964081008788689242e-01
1.964081008788689242e-01
1.822697745510126199e-01
1.822697745510126199e-01
1.822697745510126199e-01
1.990829193733282265e-01
1.990829193733282265e-01
1.815055406954527994e-01
1.815055406954527994e-01
1.815055406954527994e-01
1.757737867787542985e-01
1.757737867787542985e-01
1.883836453954910173e-01
1.883836453954910173e-01
1.883836453954910173e-01
1.887657623232709136e-01
1.887657623232709136e-01
1.780664883454337044e-01
1.780664883454337044e-01
1.780664883454337044e-01
1.906763469621704232e-01
1.906763469621704232e-01
1.688956820787160806e-01
1.688956820787160806e-01
1.688956820787160806e-01
1.688956820787160806e-01
1.688956820787160806e-01
1.807413068398930067e-01
1.807413068398930067e-01
1.807413068398930067e-01
1.780664883454337044e-01
1.780664883454337044e-01
1.681314482231562879e-01
1.681314482231562879e-01
1.681314482231562879e-01
1.837982422621322054e-01
1.837982422621322054e-01
1.727168513565150998e-01
1.727168513565150998e-01
1.727168513565150998e-01
1.719526175009552793e-01
1.719526175009552793e-01
1.547573557508597764e-01
1.547573557508597764e-01
1.547573557508597764e-01
1.524646541841803704e-01
1.524646541841803704e-01
1.711883836453954866e-01
1.711883836453954866e-01
1.711883836453954866e-01
1.685135651509361843e-01
1.685135651509361843e-01
1.730989682842949962e-01
1.730989682842949962e-01
1.730989682842949962e-01
1.681314482231562879e-01
1.681314482231562879e-01
1.635460450897974760e-01
1.635460450897974760e-01
1.635460450897974760e-01
1.551394726786396727e-01
1.551394726786396727e-01
1.463507833397019453e-01
1.463507833397019453e-01
1.463507833397019453e-01
1.604891096675582773e-01
1.604891096675582773e-01
1.589606419564386641e-01
1.589606419564386641e-01
1.589606419564386641e-01
1.562858234619793618e-01
1.562858234619793618e-01
1.402369124952235480e-01
1.402369124952235480e-01
1.402369124952235480e-01
1.467329002674818417e-01
1.467329002674818417e-01
1.543752388230798522e-01
1.543752388230798522e-01
1.543752388230798522e-01
1.371799770729843215e-01
1.371799770729843215e-01
1.413832632785632371e-01
1.413832632785632371e-01
1.413832632785632371e-01
1.559037065341994654e-01
1.559037065341994654e-01
1.551394726786396727e-01
1.551394726786396727e-01
1.551394726786396727e-01
1.501719526175009645e-01
1.501719526175009645e-01
1.367978601452044252e-01
1.367978601452044252e-01
1.367978601452044252e-01
1.494077187619411440e-01
1.494077187619411440e-01
1.375620940007642456e-01
1.375620940007642456e-01
1.375620940007642456e-01
1.486434849063813513e-01
1.486434849063813513e-01
1.410011463507833407e-01
1.410011463507833407e-01
1.410011463507833407e-01
1.260985861673672159e-01
1.260985861673672159e-01
1.337409247229652265e-01
1.337409247229652265e-01
1.337409247229652265e-01
1.303018723729461315e-01
1.303018723729461315e-01
1.241880015284677063e-01
1.241880015284677063e-01
1.241880015284677063e-01
1.291555215896064146e-01
1.291555215896064146e-01
1.440580817730225394e-01
1.440580817730225394e-01
1.440580817730225394e-01
1.230416507451280034e-01
1.230416507451280034e-01
1.375620940007642456e-01
1.375620940007642456e-01
1.375620940007642456e-01
1.352693924340848397e-01
1.352693924340848397e-01
1.364157432174245288e-01
1.364157432174245288e-01
1.364157432174245288e-01
1.150171952617500964e-01
1.150171952617500964e-01
1.348872755063049156e-01
1.348872755063049156e-01
1.348872755063049156e-01
1.387084447841039347e-01
1.387084447841039347e-01
1.333588077951853301e-01
1.333588077951853301e-01
1.333588077951853301e-01
1.192204814673289981e-01
1.192204814673289981e-01
1.215131830340084040e-01
1.215131830340084040e-01
1.215131830340084040e-01
1.314482231562858205e-01
1.314482231562858205e-01
1.180741306839892951e-01
1.180741306839892951e-01
1.173098968284295024e-01
1.173098968284295024e-01
1.173098968284295024e-01
1.115781429117309875e-01
1.115781429117309875e-01
1.253343523118074232e-01
1.253343523118074232e-01
1.253343523118074232e-01
1.142529614061902898e-01
1.142529614061902898e-01
1.257164692395873196e-01
1.257164692395873196e-01
1.257164692395873196e-01
1.089033244172716852e-01
1.089033244172716852e-01
1.226595338173481070e-01
1.226595338173481070e-01
1.226595338173481070e-01
1.100496752006113882e-01
1.100496752006113882e-01
1.054642720672525763e-01
1.054642720672525763e-01
1.054642720672525763e-01
1.211310661062285077e-01
1.211310661062285077e-01
1.123423767672907941e-01
1.123423767672907941e-01
1.123423767672907941e-01
1.123423767672907941e-01
1.123423767672907941e-01
1.146350783339702001e-01
1.146350783339702001e-01
1.146350783339702001e-01
1.089033244172716852e-01
1.089033244172716852e-01
1.157814291173099031e-01
1.157814291173099031e-01
1.157814291173099031e-01
1.066106228505922793e-01
1.066106228505922793e-01
1.238058846006878100e-01
1.238058846006878100e-01
1.238058846006878100e-01
1.196025983951089083e-01
1.196025983951089083e-01
1.043179212839128733e-01
1.043179212839128733e-01
1.043179212839128733e-01
1.138708444784103935e-01
1.138708444784103935e-01
1.196025983951089083e-01
1.196025983951089083e-01
1.196025983951089083e-01
1.234237676729079136e-01
1.234237676729079136e-01
1.134887275506304971e-01
1.134887275506304971e-01
1.134887275506304971e-01
1.215131830340084040e-01
1.215131830340084040e-01
1.012609858616736747e-01
1.012609858616736747e-01
1.012609858616736747e-01
1.043179212839128733e-01
1.043179212839128733e-01
1.207489491784486113e-01
1.207489491784486113e-01
1.207489491784486113e-01
1.161635460450897994e-01
1.161635460450897994e-01
9.629346580053496640e-02
9.629346580053496640e-02
9.629346580053496640e-02
1.024073366450133776e-01
1.024073366450133776e-01
1.001146350783339717e-01
1.001146350783339717e-01
1.001146350783339717e-01
1.092854413450515816e-01
1.092854413450515816e-01
1.207489491784486113e-01
1.207489491784486113e-01
1.207489491784486113e-01
1.238058846006878100e-01
1.238058846006878100e-01
9.973251815055407532e-02
9.973251815055407532e-02
9.973251815055407532e-02
1.073748567061520859e-01
1.073748567061520859e-01
1.169277799006495921e-01
1.169277799006495921e-01
1.169277799006495921e-01
1.215131830340084040e-01
1.215131830340084040e-01
1.024073366450133776e-01
1.024073366450133776e-01
1.024073366450133776e-01
1.004967520061138680e-01
1.004967520061138680e-01
1.001146350783339717e-01
1.001146350783339717e-01
1.001146350783339717e-01
1.062285059228123829e-01
1.062285059228123829e-01
1.184562476117692054e-01
1.184562476117692054e-01
1.184562476117692054e-01
1.169277799006495921e-01
1.169277799006495921e-01
1.238058846006878100e-01
1.238058846006878100e-01
1.238058846006878100e-01
1.069927397783721756e-01
1.069927397783721756e-01
1.108139090561711948e-01
1.108139090561711948e-01
1.108139090561711948e-01
1.066106228505922793e-01
1.066106228505922793e-01
1.211310661062285077e-01
1.211310661062285077e-01
1.211310661062285077e-01
1.012609858616736747e-01
1.012609858616736747e-01
9.973251815055407532e-02
9.973251815055407532e-02
9.973251815055407532e-02
1.089033244172716852e-01
1.089033244172716852e-01
1.001146350783339717e-01
1.001146350783339717e-01
1.001146350783339717e-01
1.150171952617500964e-01
1.150171952617500964e-01
1.062285059228123829e-01
1.062285059228123829e-01
1.062285059228123829e-01
9.858616736721437235e-02
9.858616736721437235e-02
1.173098968284295024e-01
1.173098968284295024e-01
1.173098968284295024e-01
1.192204814673289981e-01
1.192204814673289981e-01
1.184562476117692054e-01
1.184562476117692054e-01
1.184562476117692054e-01
1.215131830340084040e-01
1.215131830340084040e-01
1.050821551394726799e-01
1.050821551394726799e-01
1.050821551394726799e-01
1.073748567061520859e-01
1.073748567061520859e-01
1.203668322506687011e-01
1.203668322506687011e-01
1.203668322506687011e-01
1.199847153228888047e-01
1.199847153228888047e-01
1.058463889950324865e-01
1.058463889950324865e-01
1.058463889950324865e-01
1.047000382116927836e-01
1.047000382116927836e-01
1.184562476117692054e-01
1.184562476117692054e-01
1.184562476117692054e-01
1.089033244172716852e-01
1.089033244172716852e-01
1.108139090561711948e-01
1.108139090561711948e-01
1.108139090561711948e-01
1.196025983951089083e-01
1.196025983951089083e-01
1.085212074894917889e-01
1.085212074894917889e-01
1.085212074894917889e-01
1.196025983951089083e-01
1.196025983951089083e-01
1.119602598395108839e-01
1.119602598395108839e-01
1.119602598395108839e-01
1.153993121895299928e-01
1.153993121895299928e-01
1.211310661062285077e-01
1.211310661062285077e-01
1.211310661062285077e-01
1.196025983951089083e-01
1.196025983951089083e-01
1.138708444784103935e-01
1.138708444784103935e-01
1.138708444784103935e-01
1.192204814673289981e-01
1.192204814673289981e-01
1.169277799006495921e-01
1.169277799006495921e-01
1.169277799006495921e-01
1.153993121895299928e-01
1.153993121895299928e-01
1.100496752006113882e-01
1.100496752006113882e-01
1.192204814673289981e-01
1.192204814673289981e-01
1.192204814673289981e-01
1.058463889950324865e-01
1.058463889950324865e-01
1.146350783339702001e-01
1.146350783339702001e-01
1.146350783339702001e-01
1.058463889950324865e-01
1.058463889950324865e-01
9.552923194497515980e-02
9.552923194497515980e-02
9.552923194497515980e-02
1.047000382116927836e-01
1.047000382116927836e-01
1.092854413450515816e-01
1.092854413450515816e-01
1.092854413450515816e-01
1.081390905617118786e-01
1.081390905617118786e-01
1.024073366450133776e-01
1.024073366450133776e-01
1.024073366450133776e-01
9.552923194497515980e-02
9.552923194497515980e-02
1.100496752006113882e-01
1.100496752006113882e-01
1.100496752006113882e-01
9.782193351165456574e-02
9.782193351165456574e-02
9.361864730607566409e-02
9.361864730607566409e-02
9.361864730607566409e-02
9.170806266717615451e-02
9.170806266717615451e-02
9.591134887275505616e-02
9.591134887275505616e-02
9.591134887275505616e-02
1.096675582728314918e-01
1.096675582728314918e-01
1.092854413450515816e-01
1.092854413450515816e-01
1.092854413450515816e-01
1.001146350783339717e-01
1.001146350783339717e-01
1.001146350783339717e-01
1.001146350783339717e-01
1.001146350783339717e-01
1.127244936950706905e-01
1.127244936950706905e-01
1.001146350783339717e-01
1.001146350783339717e-01
1.001146350783339717e-01
1.081390905617118786e-01
1.081390905617118786e-01
1.111960259839510912e-01
1.111960259839510912e-01
1.111960259839510912e-01
1.111960259839510912e-01
1.111960259839510912e-01
1.199847153228888047e-01
1.199847153228888047e-01
1.199847153228888047e-01
1.291555215896064146e-01
1.291555215896064146e-01
1.215131830340084040e-01
1.215131830340084040e-01
1.215131830340084040e-01
1.264807030951471123e-01
1.264807030951471123e-01
1.356515093618647361e-01
1.356515093618647361e-01
1.356515093618647361e-01
1.410011463507833407e-01
1.410011463507833407e-01
1.635460450897974760e-01
1.635460450897974760e-01
1.635460450897974760e-01
1.776843714176538080e-01
1.776843714176538080e-01
1.700420328620557975e-01
1.700420328620557975e-01
1.700420328620557975e-01
1.719526175009552793e-01
1.719526175009552793e-01
1.979365685899885374e-01
1.979365685899885374e-01
1.979365685899885374e-01
2.143675964845242754e-01
2.143675964845242754e-01
2.220099350401222860e-01
2.220099350401222860e-01
2.220099350401222860e-01
2.197172334734428800e-01
2.197172334734428800e-01
2.445548337791364213e-01
2.445548337791364213e-01
2.445548337791364213e-01
2.617500955292319520e-01
2.617500955292319520e-01
2.541077569736339137e-01
2.541077569736339137e-01
2.541077569736339137e-01
2.755063049293083877e-01
2.755063049293083877e-01
2.816201757737867850e-01
2.816201757737867850e-01
2.816201757737867850e-01
3.171570500573175355e-01
3.171570500573175355e-01
3.293847917462743857e-01
3.293847917462743857e-01
3.293847917462743857e-01
3.278563240351547448e-01
3.278563240351547448e-01
3.305311425296140748e-01
3.305311425296140748e-01
3.305311425296140748e-01
3.553687428353076161e-01
3.553687428353076161e-01
3.557508597630875125e-01
3.557508597630875125e-01
3.557508597630875125e-01
3.794421092854413646e-01
3.794421092854413646e-01
3.939625525410775930e-01
3.939625525410775930e-01
3.939625525410775930e-01
4.054260603744745950e-01
4.054260603744745950e-01
4.107756973633931996e-01
4.107756973633931996e-01
4.107756973633931996e-01
4.241497898356897389e-01
4.241497898356897389e-01
4.226213221245700979e-01
4.226213221245700979e-01
4.226213221245700979e-01
4.344669468857470518e-01
4.344669468857470518e-01
4.352311807413068445e-01
4.352311807413068445e-01
4.352311807413068445e-01
4.547191440580817812e-01
4.547191440580817812e-01
4.658005349636988868e-01
4.658005349636988868e-01
4.658005349636988868e-01
4.619793656858998676e-01
4.619793656858998676e-01
4.757355750859763033e-01
4.757355750859763033e-01
4.757355750859763033e-01
4.822315628582345970e-01
4.822315628582345970e-01
4.715322888803973878e-01
4.715322888803973878e-01
4.715322888803973878e-01
4.764998089415360960e-01
4.764998089415360960e-01
4.887275506304929462e-01
4.887275506304929462e-01
4.887275506304929462e-01
4.833779136415743416e-01
4.833779136415743416e-01
4.990447076805502591e-01
4.990447076805502591e-01
4.990447076805502591e-01
4.929308368360718617e-01
4.929308368360718617e-01
5.036301108139090710e-01
5.036301108139090710e-01
5.036301108139090710e-01
5.047764615972487601e-01
5.047764615972487601e-01
4.914023691249522208e-01
4.914023691249522208e-01
4.914023691249522208e-01
4.998089415361100518e-01
4.998089415361100518e-01
5.024837600305693819e-01
5.024837600305693819e-01
5.024837600305693819e-01
5.005731753916699001e-01
5.005731753916699001e-01
4.883454337027130499e-01
4.883454337027130499e-01
4.883454337027130499e-01
4.917844860527321171e-01
4.917844860527321171e-01
5.093618647306075164e-01
5.093618647306075164e-01
5.093618647306075164e-01
4.948414214749713436e-01
4.948414214749713436e-01
5.001910584638900037e-01
5.001910584638900037e-01
5.001910584638900037e-01
4.925487199082919099e-01
4.925487199082919099e-01
5.066870462361482419e-01
5.066870462361482419e-01
5.066870462361482419e-01
4.986625907527703627e-01
4.986625907527703627e-01
4.952235384027512399e-01
4.952235384027512399e-01
4.959877722583110327e-01
4.959877722583110327e-01
4.959877722583110327e-01
4.936950706916316545e-01
4.936950706916316545e-01
4.776461597248757851e-01
4.776461597248757851e-01
4.776461597248757851e-01
4.795567443637753224e-01
4.795567443637753224e-01
4.726786396637370768e-01
4.726786396637370768e-01
4.726786396637370768e-01
4.703859380970576987e-01
4.703859380970576987e-01
4.700038211692778023e-01
4.700038211692778023e-01
4.700038211692778023e-01
4.845242644249140307e-01
4.845242644249140307e-01
4.700038211692778023e-01
4.700038211692778023e-01
4.700038211692778023e-01
4.669468857470385759e-01
4.669468857470385759e-01
4.700038211692778023e-01
4.700038211692778023e-01
4.700038211692778023e-01
4.738249904470768215e-01
4.738249904470768215e-01
4.787925105082155297e-01
4.787925105082155297e-01
4.787925105082155297e-01
4.707680550248375950e-01
4.707680550248375950e-01
4.570118456247611594e-01
4.570118456247611594e-01
4.570118456247611594e-01
4.654184180359189904e-01
4.654184180359189904e-01
4.547191440580817812e-01
4.547191440580817812e-01
4.547191440580817812e-01
4.501337409247229693e-01
4.501337409247229693e-01
4.486052732136033838e-01
4.486052732136033838e-01
4.486052732136033838e-01
4.470768055024837428e-01
4.470768055024837428e-01
4.432556362246847792e-01
4.432556362246847792e-01
4.432556362246847792e-01
4.596866641192204894e-01
4.596866641192204894e-01
4.554833779136415739e-01
4.554833779136415739e-01
4.554833779136415739e-01
4.547191440580817812e-01
4.547191440580817812e-01
4.512800917080626584e-01
4.512800917080626584e-01
4.512800917080626584e-01
4.466946885747038465e-01
4.466946885747038465e-01
4.333205961024073627e-01
4.333205961024073627e-01
4.333205961024073627e-01
4.379059992357661191e-01
4.379059992357661191e-01
4.302636606801681363e-01
4.302636606801681363e-01
4.302636606801681363e-01
4.237676729079098426e-01
4.237676729079098426e-01
4.210928544134505125e-01
4.210928544134505125e-01
4.210928544134505125e-01
4.264424914023691171e-01
4.264424914023691171e-01
4.180359189912112861e-01
4.180359189912112861e-01
4.180359189912112861e-01
4.184180359189912379e-01
4.184180359189912379e-01
4.096293465800535105e-01
4.096293465800535105e-01
4.096293465800535105e-01
4.195643867023309270e-01
4.195643867023309270e-01
4.149789835689721151e-01
4.149789835689721151e-01
4.149789835689721151e-01
4.035154757355751132e-01
4.035154757355751132e-01
4.233855559801299462e-01
4.233855559801299462e-01
4.233855559801299462e-01
4.107756973633931996e-01
4.107756973633931996e-01
4.134505158578525297e-01
4.134505158578525297e-01
4.134505158578525297e-01
3.962552541077569712e-01
3.962552541077569712e-01
3.993121895299961976e-01
3.993121895299961976e-01
3.993121895299961976e-01
3.909056171188383666e-01
3.909056171188383666e-01
4.061902942300343877e-01
4.061902942300343877e-01
4.061902942300343877e-01
3.844096293465800729e-01
3.844096293465800729e-01
3.828811616354604319e-01
3.828811616354604319e-01
3.828811616354604319e-01
3.909056171188383666e-01
3.909056171188383666e-01
3.767672907909820346e-01
3.767672907909820346e-01
3.767672907909820346e-01
3.767672907909820346e-01
3.767672907909820346e-01
3.794421092854413646e-01
3.794421092854413646e-01
3.794421092854413646e-01
3.714176538020634299e-01
3.714176538020634299e-01
3.771494077187619309e-01
3.771494077187619309e-01
3.771494077187619309e-01
3.614826136797860134e-01
3.614826136797860134e-01
3.649216660298051362e-01
3.649216660298051362e-01
3.649216660298051362e-01
3.473442873519296814e-01
3.473442873519296814e-01
3.500191058463890115e-01
3.500191058463890115e-01
3.500191058463890115e-01
3.561329766908674088e-01
3.561329766908674088e-01
3.324417271685135566e-01
3.324417271685135566e-01
3.324417271685135566e-01
3.435231180741306622e-01
3.435231180741306622e-01
3.320596102407336603e-01
3.320596102407336603e-01
3.320596102407336603e-01
3.290026748184944339e-01
3.290026748184944339e-01
3.167749331295376392e-01
3.167749331295376392e-01
3.167749331295376392e-01
3.267099732518150557e-01
3.267099732518150557e-01
3.014902560183416180e-01
3.014902560183416180e-01
3.014902560183416180e-01
3.098968284294994491e-01
3.098968284294994491e-01
3.110431792128391382e-01
3.110431792128391382e-01
3.110431792128391382e-01
2.865876958349254933e-01
2.865876958349254933e-01
2.862055789071455969e-01
2.862055789071455969e-01
2.862055789071455969e-01
2.953763851738632207e-01
2.953763851738632207e-01
2.900267481849446161e-01
2.900267481849446161e-01
2.900267481849446161e-01
2.743599541459686431e-01
2.743599541459686431e-01
2.770347726404279731e-01
2.770347726404279731e-01
2.770347726404279731e-01
2.674818494459304530e-01
2.674818494459304530e-01
2.705387848681696794e-01
2.705387848681696794e-01
2.705387848681696794e-01
2.781811234237676622e-01
2.781811234237676622e-01
2.628964463125716411e-01
2.628964463125716411e-01
2.628964463125716411e-01
2.472296522735957236e-01
2.472296522735957236e-01
2.548719908291937064e-01
2.548719908291937064e-01
2.548719908291937064e-01
2.541077569736339137e-01
2.541077569736339137e-01
2.510508215513947428e-01
2.510508215513947428e-01
2.414978983568972226e-01
2.414978983568972226e-01
2.414978983568972226e-01
2.472296522735957236e-01
2.472296522735957236e-01
2.388230798624378926e-01
2.388230798624378926e-01
2.388230798624378926e-01
2.441727168513565249e-01
2.441727168513565249e-01
2.361482613679785902e-01
2.361482613679785902e-01
2.361482613679785902e-01
2.426442491402369117e-01
2.426442491402369117e-01
2.204814673290026728e-01
2.204814673290026728e-01
2.204814673290026728e-01
2.235384027512418714e-01
2.235384027512418714e-01
2.193351165456629837e-01
2.193351165456629837e-01
2.193351165456629837e-01
2.353840275124187975e-01
2.353840275124187975e-01
2.300343905235001929e-01
2.300343905235001929e-01
2.300343905235001929e-01
2.300343905235001929e-01
2.300343905235001929e-01
2.376767290790982035e-01
2.376767290790982035e-01
2.376767290790982035e-01
2.350019105846389011e-01
2.350019105846389011e-01
2.155139472678639645e-01
2.155139472678639645e-01
2.155139472678639645e-01
2.189529996178830595e-01
2.189529996178830595e-01
2.292701566679404002e-01
2.292701566679404002e-01
2.292701566679404002e-01
2.296522735957202965e-01
2.296522735957202965e-01
2.223920519679021823e-01
2.223920519679021823e-01
2.223920519679021823e-01
2.105464272067252562e-01
2.105464272067252562e-01
2.269774551012609942e-01
2.269774551012609942e-01
2.269774551012609942e-01
2.105464272067252562e-01
2.105464272067252562e-01
2.189529996178830595e-01
2.189529996178830595e-01
2.189529996178830595e-01
2.197172334734428800e-01
2.197172334734428800e-01
2.212457011845624655e-01
2.212457011845624655e-01
2.212457011845624655e-01
2.200993504012227764e-01
2.200993504012227764e-01
2.170424149789835777e-01
2.170424149789835777e-01
2.170424149789835777e-01
2.285059228123805797e-01
2.285059228123805797e-01
2.212457011845624655e-01
2.212457011845624655e-01
2.212457011845624655e-01
2.181887657623232668e-01
2.181887657623232668e-01
2.166602980512036813e-01
2.166602980512036813e-01
2.166602980512036813e-01
2.132212457011845586e-01
2.132212457011845586e-01
2.250668704623614846e-01
2.250668704623614846e-01
2.250668704623614846e-01
2.197172334734428800e-01
2.197172334734428800e-01
2.094000764233855671e-01
2.094000764233855671e-01
2.094000764233855671e-01
2.128391287734046622e-01
2.128391287734046622e-01
2.009935040122277361e-01
2.009935040122277361e-01
2.009935040122277361e-01
2.013756209400076325e-01
2.013756209400076325e-01
2.074894917844860576e-01
2.074894917844860576e-01
2.074894917844860576e-01
2.025219717233473493e-01
2.025219717233473493e-01
2.155139472678639645e-01
2.155139472678639645e-01
2.155139472678639645e-01
2.002292701566679434e-01
2.002292701566679434e-01
1.990829193733282265e-01
1.990829193733282265e-01
1.990829193733282265e-01
2.113106610622850490e-01
2.113106610622850490e-01
2.067252579289262648e-01
2.067252579289262648e-01
2.067252579289262648e-01
2.044325563622468589e-01
2.044325563622468589e-01
1.872372946121513282e-01
1.872372946121513282e-01
1.872372946121513282e-01
1.929690485288498292e-01
1.929690485288498292e-01
1.964081008788689242e-01
1.964081008788689242e-01
1.964081008788689242e-01
1.941153993121895183e-01
1.941153993121895183e-01
1.944975162399694424e-01
1.944975162399694424e-01
1.944975162399694424e-01
1.914405808177302160e-01
1.914405808177302160e-01
2.021398547955674529e-01
2.021398547955674529e-01
2.021398547955674529e-01
1.860909438288116113e-01
1.860909438288116113e-01
2.009935040122277361e-01
2.009935040122277361e-01
2.009935040122277361e-01
1.880015284677111209e-01
1.880015284677111209e-01
2.002292701566679434e-01
2.002292701566679434e-01
2.002292701566679434e-01
1.994650363011081506e-01
1.994650363011081506e-01
1.952617500955292351e-01
1.952617500955292351e-01
1.952617500955292351e-01
1.933511654566297255e-01
1.933511654566297255e-01
1.872372946121513282e-01
1.872372946121513282e-01
1.872372946121513282e-01
1.937332823844096219e-01
1.937332823844096219e-01
1.906763469621704232e-01
1.906763469621704232e-01
1.906763469621704232e-01
1.880015284677111209e-01
1.880015284677111209e-01
1.750095529231945057e-01
1.750095529231945057e-01
1.750095529231945057e-01
1.734810852120748925e-01
1.734810852120748925e-01
1.792128391287733935e-01
1.792128391287733935e-01
1.792128391287733935e-01
1.719526175009552793e-01
1.719526175009552793e-01
1.826518914787925163e-01
1.826518914787925163e-01
1.826518914787925163e-01
1.803591899121131104e-01
1.803591899121131104e-01
1.822697745510126199e-01
1.822697745510126199e-01
1.822697745510126199e-01
1.738632021398547889e-01
1.738632021398547889e-01
1.727168513565150998e-01
1.727168513565150998e-01
1.727168513565150998e-01
1.818876576232326958e-01
1.818876576232326958e-01
1.711883836453954866e-01
1.711883836453954866e-01
1.711883836453954866e-01
1.746274359954146094e-01
1.746274359954146094e-01
1.654566297286969856e-01
1.654566297286969856e-01
1.654566297286969856e-01
1.727168513565150998e-01
1.727168513565150998e-01
1.539931218952999559e-01
1.539931218952999559e-01
1.539931218952999559e-01
1.555215896064195691e-01
1.555215896064195691e-01
1.574321742453190787e-01
1.574321742453190787e-01
1.574321742453190787e-01
1.639281620175773724e-01
1.639281620175773724e-01
1.524646541841803704e-01
1.524646541841803704e-01
1.532288880397401631e-01
1.532288880397401631e-01
1.532288880397401631e-01
1.459686664119220489e-01
1.459686664119220489e-01
1.478792510508215585e-01
1.478792510508215585e-01
1.478792510508215585e-01
1.597248758119984846e-01
1.597248758119984846e-01
1.627818112342376833e-01
1.627818112342376833e-01
1.627818112342376833e-01
1.627818112342376833e-01
1.627818112342376833e-01
1.371799770729843215e-01
1.371799770729843215e-01
1.371799770729843215e-01
1.513183034008406536e-01
1.513183034008406536e-01
1.608712265953381737e-01
1.608712265953381737e-01
1.608712265953381737e-01
1.417653802063431334e-01
1.417653802063431334e-01
1.436759648452426430e-01
1.436759648452426430e-01
1.436759648452426430e-01
1.356515093618647361e-01
1.356515093618647361e-01
1.524646541841803704e-01
1.524646541841803704e-01
1.524646541841803704e-01
1.306839893007260278e-01
1.306839893007260278e-01
1.459686664119220489e-01
1.459686664119220489e-01
1.459686664119220489e-01
1.406190294230034443e-01
1.406190294230034443e-01
1.505540695452808608e-01
1.505540695452808608e-01
1.505540695452808608e-01
1.444401987008024357e-01
1.444401987008024357e-01
1.287734046618265182e-01
1.287734046618265182e-01
1.287734046618265182e-01
1.303018723729461315e-01
1.303018723729461315e-01
1.329766908674054338e-01
1.329766908674054338e-01
1.329766908674054338e-01
1.207489491784486113e-01
1.207489491784486113e-01
1.218952999617883004e-01
1.218952999617883004e-01
1.218952999617883004e-01
1.322124570118456133e-01
1.322124570118456133e-01
1.360336262896446324e-01
1.360336262896446324e-01
1.360336262896446324e-01
1.283912877340466219e-01
1.283912877340466219e-01
1.165456629728696958e-01
1.165456629728696958e-01
1.165456629728696958e-01
1.306839893007260278e-01
1.306839893007260278e-01
1.153993121895299928e-01
1.153993121895299928e-01
1.153993121895299928e-01
1.165456629728696958e-01
1.165456629728696958e-01
1.333588077951853301e-01
1.333588077951853301e-01
1.333588077951853301e-01
1.153993121895299928e-01
1.153993121895299928e-01
1.215131830340084040e-01
1.215131830340084040e-01
1.215131830340084040e-01
1.131066106228505869e-01
1.131066106228505869e-01
1.089033244172716852e-01
1.089033244172716852e-01
1.089033244172716852e-01
1.131066106228505869e-01
1.131066106228505869e-01
1.111960259839510912e-01
1.111960259839510912e-01
1.111960259839510912e-01
1.089033244172716852e-01
1.089033244172716852e-01
1.287734046618265182e-01
1.287734046618265182e-01
1.287734046618265182e-01
1.238058846006878100e-01
1.238058846006878100e-01
1.108139090561711948e-01
1.108139090561711948e-01
1.108139090561711948e-01
1.092854413450515816e-01
1.092854413450515816e-01
1.138708444784103935e-01
1.138708444784103935e-01
1.138708444784103935e-01
1.092854413450515816e-01
1.092854413450515816e-01
1.062285059228123829e-01
1.062285059228123829e-01
1.062285059228123829e-01
1.153993121895299928e-01
1.153993121895299928e-01
1.016431027894535710e-01
1.016431027894535710e-01
1.016431027894535710e-01
1.134887275506304971e-01
1.134887275506304971e-01
1.226595338173481070e-01
1.226595338173481070e-01
1.226595338173481070e-01
1.111960259839510912e-01
1.111960259839510912e-01
1.215131830340084040e-01
1.215131830340084040e-01
1.215131830340084040e-01
1.123423767672907941e-01
1.123423767672907941e-01
1.207489491784486113e-01
1.207489491784486113e-01
1.207489491784486113e-01
1.073748567061520859e-01
1.073748567061520859e-01
1.131066106228505869e-01
1.131066106228505869e-01
1.131066106228505869e-01
1.203668322506687011e-01
1.203668322506687011e-01
1.035536874283530806e-01
1.035536874283530806e-01
1.035536874283530806e-01
1.043179212839128733e-01
1.043179212839128733e-01
1.104317921283912846e-01
1.104317921283912846e-01
1.104317921283912846e-01
9.667558272831486277e-02
9.667558272831486277e-02
1.119602598395108839e-01
1.119602598395108839e-01
1.119602598395108839e-01
1.016431027894535710e-01
1.016431027894535710e-01
9.973251815055407532e-02
9.973251815055407532e-02
9.973251815055407532e-02
1.081390905617118786e-01
1.081390905617118786e-01
9.935040122277416508e-02
9.935040122277416508e-02
9.935040122277416508e-02
9.973251815055407532e-02
9.973251815055407532e-02
1.089033244172716852e-01
1.089033244172716852e-01
1.089033244172716852e-01
1.069927397783721756e-01
1.069927397783721756e-01
1.047000382116927836e-01
1.047000382116927836e-01
1.047000382116927836e-01
1.134887275506304971e-01
1.134887275506304971e-01
1.169277799006495921e-01
1.169277799006495921e-01
1.169277799006495921e-01
9.667558272831486277e-02
9.667558272831486277e-02
9.820405043943446211e-02
9.820405043943446211e-02
9.820405043943446211e-02
1.089033244172716852e-01
1.089033244172716852e-01
1.165456629728696958e-01
1.165456629728696958e-01
1.165456629728696958e-01
1.004967520061138680e-01
1.004967520061138680e-01
9.743981658387466938e-02
9.743981658387466938e-02
9.743981658387466938e-02
1.081390905617118786e-01
1.081390905617118786e-01
9.935040122277416508e-02
9.935040122277416508e-02
9.935040122277416508e-02
1.020252197172334674e-01
1.020252197172334674e-01
9.629346580053496640e-02
9.629346580053496640e-02
1.153993121895299928e-01
1.153993121895299928e-01
1.153993121895299928e-01
1.115781429117309875e-01
1.115781429117309875e-01
1.073748567061520859e-01
1.073748567061520859e-01
1.073748567061520859e-01
9.400076423385556046e-02
9.400076423385556046e-02
1.127244936950706905e-01
1.127244936950706905e-01
1.127244936950706905e-01
1.089033244172716852e-01
1.089033244172716852e-01
1.111960259839510912e-01
1.111960259839510912e-01
1.111960259839510912e-01
1.069927397783721756e-01
1.069927397783721756e-01
1.131066106228505869e-01
1.131066106228505869e-01
1.131066106228505869e-01
1.115781429117309875e-01
1.115781429117309875e-01
9.935040122277416508e-02
9.935040122277416508e-02
9.935040122277416508e-02
1.127244936950706905e-01
1.127244936950706905e-01
9.973251815055407532e-02
9.973251815055407532e-02
