9.575850210164310594e-01
9.575850210164310594e-01
9.503247993886129175e-01
9.503247993886129175e-01
9.503247993886129175e-01
9.507069163163928138e-01
9.507069163163928138e-01
9.361864730607566409e-01
9.361864730607566409e-01
9.361864730607566409e-01
9.235766144440198389e-01
9.235766144440198389e-01
9.212839128773404607e-01
9.212839128773404607e-01
9.212839128773404607e-01
9.014138326327856277e-01
9.014138326327856277e-01
9.017959495605655240e-01
9.017959495605655240e-01
9.017959495605655240e-01
8.884218570882690402e-01
8.884218570882690402e-01
8.807795185326710019e-01
8.807795185326710019e-01
8.807795185326710019e-01
8.796331677493313128e-01
8.796331677493313128e-01
8.555598012991975088e-01
8.555598012991975088e-01
8.555598012991975088e-01
8.547955674436377160e-01
8.547955674436377160e-01
8.406572411157814395e-01
8.406572411157814395e-01
8.406572411157814395e-01
8.318685517768437121e-01
8.318685517768437121e-01
8.353076041268627794e-01
8.353076041268627794e-01
8.353076041268627794e-01
8.482995796713794778e-01
8.482995796713794778e-01
8.379824226213221650e-01
8.379824226213221650e-01
8.379824226213221650e-01
8.299579671379442303e-01
8.299579671379442303e-01
7.936568589988536315e-01
7.936568589988536315e-01
7.936568589988536315e-01
8.016813144822315662e-01
8.016813144822315662e-01
7.990064959877722917e-01
7.990064959877722917e-01
7.990064959877722917e-01
7.699656094764998349e-01
7.699656094764998349e-01
7.917462743599541497e-01
7.917462743599541497e-01
7.917462743599541497e-01
7.562094000764233437e-01
7.562094000764233437e-01
7.695834925487199385e-01
7.695834925487199385e-01
7.695834925487199385e-01
7.546809323653037582e-01
7.546809323653037582e-01
7.367214367596484070e-01
7.367214367596484070e-01
7.367214367596484070e-01
7.279327474207107906e-01
7.279327474207107906e-01
7.267863966373709905e-01
7.267863966373709905e-01
7.267863966373709905e-01
7.302254489873901688e-01
7.302254489873901688e-01
7.378677875429882072e-01
7.378677875429882072e-01
7.378677875429882072e-01
7.088269010317157504e-01
7.088269010317157504e-01
7.187619411539931669e-01
7.187619411539931669e-01
7.187619411539931669e-01
7.065341994650362611e-01
7.065341994650362611e-01
6.965991593427588446e-01
6.965991593427588446e-01
6.965991593427588446e-01
6.855177684371417390e-01
6.855177684371417390e-01
6.698509743981658771e-01
6.698509743981658771e-01
6.698509743981658771e-01
6.774933129537638044e-01
6.774933129537638044e-01
6.610622850592281496e-01
6.610622850592281496e-01
6.610622850592281496e-01
6.706152082537256698e-01
6.706152082537256698e-01
6.748184944593045298e-01
6.748184944593045298e-01
6.748184944593045298e-01
6.706152082537256698e-01
6.706152082537256698e-01
6.381352693924340347e-01
6.381352693924340347e-01
6.381352693924340347e-01
6.301108139090562110e-01
6.301108139090562110e-01
6.557126480703094895e-01
6.557126480703094895e-01
6.557126480703094895e-01
6.243790599923576545e-01
6.243790599923576545e-01
6.243790599923576545e-01
6.243790599923576545e-01
6.243790599923576545e-01
6.068016813144821997e-01
6.068016813144821997e-01
6.331677493312953819e-01
6.331677493312953819e-01
6.331677493312953819e-01
6.239969430645777582e-01
6.239969430645777582e-01
6.217042414978983800e-01
6.217042414978983800e-01
6.217042414978983800e-01
5.869316010699273667e-01
5.869316010699273667e-01
5.831104317921284030e-01
5.831104317921284030e-01
5.831104317921284030e-01
5.773786778754298465e-01
5.773786778754298465e-01
6.025983951089033397e-01
6.025983951089033397e-01
6.025983951089033397e-01
5.811998471532289212e-01
5.811998471532289212e-01
5.854031333588077812e-01
5.854031333588077812e-01
5.854031333588077812e-01
5.838746656476881958e-01
5.838746656476881958e-01
5.834925487199082994e-01
5.834925487199082994e-01
5.834925487199082994e-01
5.582728314864348063e-01
5.582728314864348063e-01
5.613297669086740882e-01
5.613297669086740882e-01
5.613297669086740882e-01
5.391669850974397660e-01
5.391669850974397660e-01
5.322888803974016314e-01
5.322888803974016314e-01
5.322888803974016314e-01
5.292319449751623495e-01
5.292319449751623495e-01
5.502483760030569826e-01
5.502483760030569826e-01
5.502483760030569826e-01
5.494841421474970788e-01
5.494841421474970788e-01
5.158578525028658657e-01
5.158578525028658657e-01
5.395491020252196623e-01
5.395491020252196623e-01
5.395491020252196623e-01
5.143293847917462802e-01
5.143293847917462802e-01
5.055406954528085528e-01
5.055406954528085528e-01
5.055406954528085528e-01
5.051585785250286564e-01
5.051585785250286564e-01
4.986625907527703627e-01
4.986625907527703627e-01
4.986625907527703627e-01
5.105082155139473166e-01
5.105082155139473166e-01
4.929308368360718617e-01
4.929308368360718617e-01
4.929308368360718617e-01
4.829957967137944452e-01
4.829957967137944452e-01
4.791746274359954261e-01
4.791746274359954261e-01
4.791746274359954261e-01
4.998089415361100518e-01
4.998089415361100518e-01
4.799388612915552188e-01
4.799388612915552188e-01
4.799388612915552188e-01
4.906381352693924280e-01
4.906381352693924280e-01
4.589224302636606967e-01
4.589224302636606967e-01
4.589224302636606967e-01
4.745892243026366142e-01
4.745892243026366142e-01
4.833779136415743416e-01
4.833779136415743416e-01
4.833779136415743416e-01
4.543370271303018848e-01
4.543370271303018848e-01
4.650363011081390940e-01
4.650363011081390940e-01
4.650363011081390940e-01
4.455483377913641574e-01
4.455483377913641574e-01
4.421092854413450346e-01
4.421092854413450346e-01
4.421092854413450346e-01
4.646541841803591977e-01
4.646541841803591977e-01
4.585403133358808003e-01
4.585403133358808003e-01
4.585403133358808003e-01
4.463125716469239501e-01
4.463125716469239501e-01
4.424914023691249310e-01
4.424914023691249310e-01
4.424914023691249310e-01
4.459304547191440538e-01
4.459304547191440538e-01
4.329384791746274108e-01
4.329384791746274108e-01
4.329384791746274108e-01
4.145968666411922188e-01
4.145968666411922188e-01
4.409629346580053455e-01
4.409629346580053455e-01
4.409629346580053455e-01
4.287351929690485508e-01
4.287351929690485508e-01
4.145968666411922188e-01
4.145968666411922188e-01
4.145968666411922188e-01
4.287351929690485508e-01
4.287351929690485508e-01
4.130683989300725778e-01
4.130683989300725778e-01
4.130683989300725778e-01
4.115399312189529923e-01
4.115399312189529923e-01
4.073366450133740768e-01
4.073366450133740768e-01
4.073366450133740768e-01
4.111578142911730960e-01
4.111578142911730960e-01
3.954910202521971785e-01
3.954910202521971785e-01
3.954910202521971785e-01
3.954910202521971785e-01
3.954910202521971785e-01
3.836453954910202246e-01
3.836453954910202246e-01
3.836453954910202246e-01
3.782957585021016200e-01
3.782957585021016200e-01
3.752388230798624491e-01
3.752388230798624491e-01
3.752388230798624491e-01
3.721818876576232227e-01
3.721818876576232227e-01
3.966373710355368676e-01
3.966373710355368676e-01
3.966373710355368676e-01
3.935804356132976967e-01
3.935804356132976967e-01
3.886129155521589329e-01
3.886129155521589329e-01
3.886129155521589329e-01
3.744745892243026564e-01
3.744745892243026564e-01
3.748567061520825527e-01
3.748567061520825527e-01
3.748567061520825527e-01
3.840275124188001765e-01
3.840275124188001765e-01
3.523118074130683897e-01
3.523118074130683897e-01
3.523118074130683897e-01
3.771494077187619309e-01
3.771494077187619309e-01
3.641574321742453435e-01
3.641574321742453435e-01
3.641574321742453435e-01
3.500191058463890115e-01
3.500191058463890115e-01
3.408482995796713877e-01
3.408482995796713877e-01
3.408482995796713877e-01
3.683607183798242035e-01
3.683607183798242035e-01
3.561329766908674088e-01
3.561329766908674088e-01
3.561329766908674088e-01
3.347344287351929903e-01
3.347344287351929903e-01
3.305311425296140748e-01
3.305311425296140748e-01
3.305311425296140748e-01
3.442873519296905105e-01
3.442873519296905105e-01
3.454337027130301996e-01
3.454337027130301996e-01
3.454337027130301996e-01
3.549866259075277197e-01
3.549866259075277197e-01
3.247993886129155738e-01
3.247993886129155738e-01
3.247993886129155738e-01
3.473442873519296814e-01
3.473442873519296814e-01
3.213603362628964510e-01
3.213603362628964510e-01
3.213603362628964510e-01
3.312953763851738676e-01
3.312953763851738676e-01
3.469621704241497850e-01
3.469621704241497850e-01
3.469621704241497850e-01
3.163928162017577428e-01
3.163928162017577428e-01
3.202139854795567619e-01
3.202139854795567619e-01
3.202139854795567619e-01
3.129537638517386200e-01
3.129537638517386200e-01
3.144822315628582610e-01
3.144822315628582610e-01
3.144822315628582610e-01
3.175391669850974319e-01
3.175391669850974319e-01
3.339701948796331421e-01
3.339701948796331421e-01
3.339701948796331421e-01
3.160106992739778464e-01
3.160106992739778464e-01
3.209782193351165547e-01
3.209782193351165547e-01
3.209782193351165547e-01
3.270920901795949520e-01
3.270920901795949520e-01
2.957585021016431170e-01
2.957585021016431170e-01
2.957585021016431170e-01
3.232709209017959329e-01
3.232709209017959329e-01
3.217424531906763474e-01
3.217424531906763474e-01
3.217424531906763474e-01
2.915552158960642015e-01
2.915552158960642015e-01
2.942300343905234761e-01
2.942300343905234761e-01
2.942300343905234761e-01
3.152464654184180537e-01
3.152464654184180537e-01
2.846771111960260114e-01
2.846771111960260114e-01
2.846771111960260114e-01
3.064577760794803263e-01
3.064577760794803263e-01
3.087504776461597045e-01
3.087504776461597045e-01
2.758884218570882840e-01
2.758884218570882840e-01
2.758884218570882840e-01
3.079862437905999117e-01
3.079862437905999117e-01
2.751241880015284913e-01
2.751241880015284913e-01
2.751241880015284913e-01
3.034008406572410999e-01
3.034008406572410999e-01
2.804738249904470959e-01
2.804738249904470959e-01
2.804738249904470959e-01
2.709209017959495758e-01
2.709209017959495758e-01
2.988154375238822880e-01
2.988154375238822880e-01
2.988154375238822880e-01
2.980512036683224952e-01
2.980512036683224952e-01
2.823844096293465777e-01
2.823844096293465777e-01
2.823844096293465777e-01
2.751241880015284913e-01
2.751241880015284913e-01
2.625143293847917447e-01
2.625143293847917447e-01
2.625143293847917447e-01
2.785632403515475586e-01
2.785632403515475586e-01
2.720672525792892649e-01
2.720672525792892649e-01
2.720672525792892649e-01
2.514329384791746391e-01
2.514329384791746391e-01
2.693924340848299348e-01
2.693924340848299348e-01
2.693924340848299348e-01
2.770347726404279731e-01
2.770347726404279731e-01
2.510508215513947428e-01
2.510508215513947428e-01
2.510508215513947428e-01
2.682460833014902457e-01
2.682460833014902457e-01
2.682460833014902457e-01
2.682460833014902457e-01
2.682460833014902457e-01
2.571646923958731401e-01
2.571646923958731401e-01
2.713030187237294721e-01
2.713030187237294721e-01
2.713030187237294721e-01
2.380588460068780998e-01
2.380588460068780998e-01
2.369124952235384107e-01
2.369124952235384107e-01
2.369124952235384107e-01
2.663354986625907639e-01
2.663354986625907639e-01
2.414978983568972226e-01
2.414978983568972226e-01
2.414978983568972226e-01
2.350019105846389011e-01
2.350019105846389011e-01
2.621322124570118484e-01
2.621322124570118484e-01
2.621322124570118484e-01
2.323270920901795988e-01
2.323270920901795988e-01
2.548719908291937064e-01
2.548719908291937064e-01
2.548719908291937064e-01
2.346197936568590048e-01
2.346197936568590048e-01
2.537256400458540173e-01
2.537256400458540173e-01
2.537256400458540173e-01
2.338555598012991843e-01
2.338555598012991843e-01
2.380588460068780998e-01
2.380588460068780998e-01
2.380588460068780998e-01
2.472296522735957236e-01
2.472296522735957236e-01
2.556362246847535546e-01
2.556362246847535546e-01
2.556362246847535546e-01
2.728314864348490576e-01
2.728314864348490576e-01
2.613679786014520556e-01
2.613679786014520556e-01
2.613679786014520556e-01
2.556362246847535546e-01
2.556362246847535546e-01
2.632785632403515375e-01
2.632785632403515375e-01
2.632785632403515375e-01
2.686282002292701421e-01
2.686282002292701421e-01
2.976690867405425989e-01
2.976690867405425989e-01
2.976690867405425989e-01
2.942300343905234761e-01
2.942300343905234761e-01
3.190676346962170173e-01
3.190676346962170173e-01
3.190676346962170173e-01
3.366450133740924722e-01
3.366450133740924722e-01
3.286205578907145375e-01
3.286205578907145375e-01
3.286205578907145375e-01
3.431410011463507659e-01
3.431410011463507659e-01
3.653037829575850326e-01
3.653037829575850326e-01
3.653037829575850326e-01
3.637753152464653916e-01
3.637753152464653916e-01
3.828811616354604319e-01
3.828811616354604319e-01
3.828811616354604319e-01
3.798242262132212610e-01
3.798242262132212610e-01
4.008406572411157831e-01
4.008406572411157831e-01
4.008406572411157831e-01
4.207107374856706161e-01
4.207107374856706161e-01
4.501337409247229693e-01
4.501337409247229693e-01
4.501337409247229693e-01
4.508979747802827620e-01
4.508979747802827620e-01
4.753534581581964069e-01
4.753534581581964069e-01
4.753534581581964069e-01
4.680932365303783205e-01
4.680932365303783205e-01
4.856706152082537198e-01
4.856706152082537198e-01
4.856706152082537198e-01
4.917844860527321171e-01
4.917844860527321171e-01
4.910202521971723244e-01
4.910202521971723244e-01
4.910202521971723244e-01
5.303782957585021496e-01
5.303782957585021496e-01
5.200611387084448367e-01
5.200611387084448367e-01
5.200611387084448367e-01
5.502483760030569826e-01
5.502483760030569826e-01
5.426060374474589443e-01
5.426060374474589443e-01
5.426060374474589443e-01
5.448987390141383225e-01
5.448987390141383225e-01
5.483377913641573898e-01
5.483377913641573898e-01
5.483377913641573898e-01
5.769965609476499502e-01
5.769965609476499502e-01
5.926633549866259232e-01
5.926633549866259232e-01
5.926633549866259232e-01
5.968666411922047832e-01
5.968666411922047832e-01
5.796713794421093358e-01
5.796713794421093358e-01
5.796713794421093358e-01
5.995414596866641688e-01
5.995414596866641688e-01
5.777607948032097429e-01
5.777607948032097429e-01
5.777607948032097429e-01
6.014520443255636506e-01
6.014520443255636506e-01
6.045089797478028215e-01
6.045089797478028215e-01
6.045089797478028215e-01
5.842567825754680921e-01
5.842567825754680921e-01
5.972487581199846796e-01
5.972487581199846796e-01
5.972487581199846796e-01
5.842567825754680921e-01
5.842567825754680921e-01
6.071837982422620961e-01
6.071837982422620961e-01
6.071837982422620961e-01
5.792892625143294394e-01
5.792892625143294394e-01
5.773786778754298465e-01
5.773786778754298465e-01
5.773786778754298465e-01
5.785250286587695356e-01
5.785250286587695356e-01
5.819640810087887139e-01
5.819640810087887139e-01
5.819640810087887139e-01
5.903706534199465450e-01
5.903706534199465450e-01
5.712648070309515047e-01
5.712648070309515047e-01
5.701184562476118156e-01
5.701184562476118156e-01
5.701184562476118156e-01
5.823461979365686103e-01
5.823461979365686103e-01
5.605655330531142955e-01
5.605655330531142955e-01
5.605655330531142955e-01
5.567443637753152208e-01
5.567443637753152208e-01
5.842567825754680921e-01
5.842567825754680921e-01
5.842567825754680921e-01
5.666794038975926373e-01
5.666794038975926373e-01
5.750859763087504684e-01
5.750859763087504684e-01
5.750859763087504684e-01
5.739396255254107793e-01
5.739396255254107793e-01
5.647688192586931555e-01
5.647688192586931555e-01
5.647688192586931555e-01
5.643867023309132591e-01
5.643867023309132591e-01
5.506304929308368790e-01
5.506304929308368790e-01
5.506304929308368790e-01
5.307604126862820459e-01
5.307604126862820459e-01
5.426060374474589443e-01
5.426060374474589443e-01
5.426060374474589443e-01
5.319067634696217350e-01
5.319067634696217350e-01
5.166220863584256584e-01
5.166220863584256584e-01
5.166220863584256584e-01
5.147115017195261766e-01
5.147115017195261766e-01
5.277034772640427640e-01
5.277034772640427640e-01
5.277034772640427640e-01
5.311425296140619423e-01
5.311425296140619423e-01
5.116545662972870057e-01
5.116545662972870057e-01
5.116545662972870057e-01
5.192969048528849330e-01
5.192969048528849330e-01
5.143293847917462802e-01
5.143293847917462802e-01
5.143293847917462802e-01
5.078333970194879310e-01
5.078333970194879310e-01
4.978983568972105700e-01
4.978983568972105700e-01
4.978983568972105700e-01
5.036301108139090710e-01
5.036301108139090710e-01
5.055406954528085528e-01
5.055406954528085528e-01
5.055406954528085528e-01
5.051585785250286564e-01
5.051585785250286564e-01
4.761176920137561996e-01
4.761176920137561996e-01
4.761176920137561996e-01
4.894917844860527389e-01
4.894917844860527389e-01
4.818494459304547006e-01
4.818494459304547006e-01
4.818494459304547006e-01
4.914023691249522208e-01
4.914023691249522208e-01
4.726786396637370768e-01
4.726786396637370768e-01
4.726786396637370768e-01
4.833779136415743416e-01
4.833779136415743416e-01
4.722965227359571805e-01
4.722965227359571805e-01
4.722965227359571805e-01
4.654184180359189904e-01
4.654184180359189904e-01
4.761176920137561996e-01
4.761176920137561996e-01
4.761176920137561996e-01
4.593045471914405931e-01
4.593045471914405931e-01
4.547191440580817812e-01
4.547191440580817812e-01
4.547191440580817812e-01
4.734428735192969251e-01
4.734428735192969251e-01
4.722965227359571805e-01
4.722965227359571805e-01
4.722965227359571805e-01
4.466946885747038465e-01
4.466946885747038465e-01
4.428735192969048273e-01
4.428735192969048273e-01
4.428735192969048273e-01
4.444019870080244683e-01
4.444019870080244683e-01
4.677111196025983686e-01
4.677111196025983686e-01
4.677111196025983686e-01
4.314100114635078254e-01
4.314100114635078254e-01
4.367596484524264300e-01
4.367596484524264300e-01
4.367596484524264300e-01
4.585403133358808003e-01
4.585403133358808003e-01
4.340848299579671554e-01
4.340848299579671554e-01
4.340848299579671554e-01
4.455483377913641574e-01
4.455483377913641574e-01
4.195643867023309270e-01
4.195643867023309270e-01
4.195643867023309270e-01
4.363775315246465336e-01
4.363775315246465336e-01
4.065724111578142841e-01
4.065724111578142841e-01
4.065724111578142841e-01
3.996943064577760940e-01
3.996943064577760940e-01
4.294994268246083435e-01
4.294994268246083435e-01
4.294994268246083435e-01
4.165074512800917006e-01
4.165074512800917006e-01
4.058081773022544914e-01
4.058081773022544914e-01
4.058081773022544914e-01
3.970194879633167639e-01
3.970194879633167639e-01
3.824990447076805355e-01
3.824990447076805355e-01
3.824990447076805355e-01
3.996943064577760940e-01
3.996943064577760940e-01
3.752388230798624491e-01
3.752388230798624491e-01
3.752388230798624491e-01
3.893771494077187811e-01
3.893771494077187811e-01
3.874665647688192438e-01
3.874665647688192438e-01
3.874665647688192438e-01
3.534581581964080788e-01
3.534581581964080788e-01
3.767672907909820346e-01
3.767672907909820346e-01
3.767672907909820346e-01
3.431410011463507659e-01
3.431410011463507659e-01
3.561329766908674088e-01
3.561329766908674088e-01
3.561329766908674088e-01
3.580435613297668906e-01
3.580435613297668906e-01
3.366450133740924722e-01
3.366450133740924722e-01
3.366450133740924722e-01
3.274742071073748484e-01
3.274742071073748484e-01
3.400840657241115950e-01
3.400840657241115950e-01
3.400840657241115950e-01
3.144822315628582610e-01
3.144822315628582610e-01
3.152464654184180537e-01
3.152464654184180537e-01
3.152464654184180537e-01
3.309132594573939712e-01
3.309132594573939712e-01
3.286205578907145375e-01
3.286205578907145375e-01
3.286205578907145375e-01
2.999617883072220326e-01
2.999617883072220326e-01
3.064577760794803263e-01
3.064577760794803263e-01
3.064577760794803263e-01
3.125716469239587236e-01
3.125716469239587236e-01
3.160106992739778464e-01
3.160106992739778464e-01
3.160106992739778464e-01
2.904088651127245124e-01
2.904088651127245124e-01
2.865876958349254933e-01
2.865876958349254933e-01
2.865876958349254933e-01
3.060756591517004299e-01
3.060756591517004299e-01
2.793274742071073513e-01
2.793274742071073513e-01
2.816201757737867850e-01
2.816201757737867850e-01
2.816201757737867850e-01
3.095147115017195527e-01
3.095147115017195527e-01
2.934658005349636833e-01
2.934658005349636833e-01
2.934658005349636833e-01
3.068398930072602226e-01
3.068398930072602226e-01
2.827665265571264741e-01
2.827665265571264741e-01
2.827665265571264741e-01
2.835307604126862668e-01
2.835307604126862668e-01
2.777990064959877659e-01
2.777990064959877659e-01
2.777990064959877659e-01
2.892625143293847678e-01
2.892625143293847678e-01
2.789453572793274549e-01
2.789453572793274549e-01
2.789453572793274549e-01
3.079862437905999117e-01
3.079862437905999117e-01
2.816201757737867850e-01
2.816201757737867850e-01
2.816201757737867850e-01
2.793274742071073513e-01
2.793274742071073513e-01
3.102789453572793454e-01
3.102789453572793454e-01
3.102789453572793454e-01
2.777990064959877659e-01
2.777990064959877659e-01
3.064577760794803263e-01
3.064577760794803263e-01
3.064577760794803263e-01
3.076041268628200154e-01
3.076041268628200154e-01
2.808559419182269923e-01
2.808559419182269923e-01
2.808559419182269923e-01
2.915552158960642015e-01
2.915552158960642015e-01
3.026366068016813071e-01
3.026366068016813071e-01
3.026366068016813071e-01
3.060756591517004299e-01
3.060756591517004299e-01
3.087504776461597045e-01
3.087504776461597045e-01
3.087504776461597045e-01
3.102789453572793454e-01
3.102789453572793454e-01
2.911730989682843052e-01
2.911730989682843052e-01
2.911730989682843052e-01
3.064577760794803263e-01
3.064577760794803263e-01
3.053114252961406372e-01
3.053114252961406372e-01
3.053114252961406372e-01
3.030187237294612035e-01
3.030187237294612035e-01
2.991975544516621843e-01
2.991975544516621843e-01
2.991975544516621843e-01
2.789453572793274549e-01
2.789453572793274549e-01
2.835307604126862668e-01
2.835307604126862668e-01
2.835307604126862668e-01
2.965227359572029098e-01
2.965227359572029098e-01
2.743599541459686431e-01
2.743599541459686431e-01
2.743599541459686431e-01
2.747420710737485394e-01
2.747420710737485394e-01
2.812380588460068886e-01
2.812380588460068886e-01
2.812380588460068886e-01
2.862055789071455969e-01
2.862055789071455969e-01
2.862055789071455969e-01
2.862055789071455969e-01
2.862055789071455969e-01
2.724493695070691612e-01
2.724493695070691612e-01
2.789453572793274549e-01
2.789453572793274549e-01
2.789453572793274549e-01
2.842949942682460596e-01
2.842949942682460596e-01
2.613679786014520556e-01
2.613679786014520556e-01
2.613679786014520556e-01
2.900267481849446161e-01
2.900267481849446161e-01
2.667176155903706603e-01
2.667176155903706603e-01
2.667176155903706603e-01
2.865876958349254933e-01
2.865876958349254933e-01
2.560183416125334510e-01
2.560183416125334510e-01
2.560183416125334510e-01
2.556362246847535546e-01
2.556362246847535546e-01
2.632785632403515375e-01
2.632785632403515375e-01
2.632785632403515375e-01
2.690103171570500384e-01
2.690103171570500384e-01
2.667176155903706603e-01
2.667176155903706603e-01
2.667176155903706603e-01
2.755063049293083877e-01
2.755063049293083877e-01
2.743599541459686431e-01
2.743599541459686431e-01
2.743599541459686431e-01
2.697745510126098312e-01
2.697745510126098312e-01
2.556362246847535546e-01
2.556362246847535546e-01
2.556362246847535546e-01
2.483760030569354127e-01
2.483760030569354127e-01
2.609858616736721593e-01
2.609858616736721593e-01
2.609858616736721593e-01
2.663354986625907639e-01
2.663354986625907639e-01
2.449369507069163177e-01
2.449369507069163177e-01
2.449369507069163177e-01
2.372946121513183071e-01
2.372946121513183071e-01
2.346197936568590048e-01
2.346197936568590048e-01
2.346197936568590048e-01
2.300343905235001929e-01
2.300343905235001929e-01
2.483760030569354127e-01
2.483760030569354127e-01
2.483760030569354127e-01
2.361482613679785902e-01
2.361482613679785902e-01
2.235384027512418714e-01
2.235384027512418714e-01
2.235384027512418714e-01
2.441727168513565249e-01
2.441727168513565249e-01
2.453190676346962140e-01
2.453190676346962140e-01
2.453190676346962140e-01
2.495223538402751295e-01
2.495223538402751295e-01
2.334734428735192879e-01
2.334734428735192879e-01
2.334734428735192879e-01
2.208635842567825691e-01
2.208635842567825691e-01
2.143675964845242754e-01
2.143675964845242754e-01
2.143675964845242754e-01
2.204814673290026728e-01
2.204814673290026728e-01
2.197172334734428800e-01
2.197172334734428800e-01
2.197172334734428800e-01
2.193351165456629837e-01
2.193351165456629837e-01
2.277416889568207869e-01
2.277416889568207869e-01
2.277416889568207869e-01
2.338555598012991843e-01
2.338555598012991843e-01
2.078716087122659539e-01
2.078716087122659539e-01
2.078716087122659539e-01
2.071073748567061612e-01
2.071073748567061612e-01
2.013756209400076325e-01
2.013756209400076325e-01
2.013756209400076325e-01
2.116927779900649731e-01
2.116927779900649731e-01
2.124570118456247658e-01
2.124570118456247658e-01
2.124570118456247658e-01
2.071073748567061612e-01
2.071073748567061612e-01
2.021398547955674529e-01
2.021398547955674529e-01
2.021398547955674529e-01
2.243026366068016919e-01
2.243026366068016919e-01
2.212457011845624655e-01
2.212457011845624655e-01
2.212457011845624655e-01
1.933511654566297255e-01
1.933511654566297255e-01
1.910584638899503196e-01
1.910584638899503196e-01
1.948796331677493388e-01
1.948796331677493388e-01
1.948796331677493388e-01
2.124570118456247658e-01
2.124570118456247658e-01
2.136033626289644549e-01
2.136033626289644549e-01
2.136033626289644549e-01
1.883836453954910173e-01
1.883836453954910173e-01
2.170424149789835777e-01
2.170424149789835777e-01
2.170424149789835777e-01
2.090179594956056430e-01
2.090179594956056430e-01
1.964081008788689242e-01
1.964081008788689242e-01
1.964081008788689242e-01
1.983186855177684338e-01
1.983186855177684338e-01
1.990829193733282265e-01
1.990829193733282265e-01
1.990829193733282265e-01
2.086358425678257467e-01
2.086358425678257467e-01
1.979365685899885374e-01
1.979365685899885374e-01
1.979365685899885374e-01
1.971723347344287447e-01
1.971723347344287447e-01
1.765380206343140912e-01
1.765380206343140912e-01
1.765380206343140912e-01
1.964081008788689242e-01
1.964081008788689242e-01
1.757737867787542985e-01
1.757737867787542985e-01
1.757737867787542985e-01
1.792128391287733935e-01
1.792128391287733935e-01
1.738632021398547889e-01
1.738632021398547889e-01
1.738632021398547889e-01
1.979365685899885374e-01
1.979365685899885374e-01
2.002292701566679434e-01
2.002292701566679434e-01
2.002292701566679434e-01
1.792128391287733935e-01
1.792128391287733935e-01
1.704241497898356938e-01
1.704241497898356938e-01
1.704241497898356938e-01
1.719526175009552793e-01
1.719526175009552793e-01
1.872372946121513282e-01
1.872372946121513282e-01
1.872372946121513282e-01
1.673672143675964952e-01
1.673672143675964952e-01
1.799770729843332140e-01
1.799770729843332140e-01
1.799770729843332140e-01
1.711883836453954866e-01
1.711883836453954866e-01
1.830340084065724127e-01
1.830340084065724127e-01
1.830340084065724127e-01
1.646923958731371929e-01
1.646923958731371929e-01
1.620175773786778628e-01
1.620175773786778628e-01
1.620175773786778628e-01
1.581964081008788714e-01
1.581964081008788714e-01
1.616354604508979664e-01
1.616354604508979664e-01
1.616354604508979664e-01
1.578142911730989750e-01
1.578142911730989750e-01
1.880015284677111209e-01
1.880015284677111209e-01
1.880015284677111209e-01
1.646923958731371929e-01
1.646923958731371929e-01
1.822697745510126199e-01
1.822697745510126199e-01
1.822697745510126199e-01
1.608712265953381737e-01
1.608712265953381737e-01
1.685135651509361843e-01
1.685135651509361843e-01
1.685135651509361843e-01
1.807413068398930067e-01
1.807413068398930067e-01
1.520825372564004463e-01
1.520825372564004463e-01
1.520825372564004463e-01
1.715705005731753829e-01
1.715705005731753829e-01
1.795949560565533176e-01
1.795949560565533176e-01
1.795949560565533176e-01
1.513183034008406536e-01
1.513183034008406536e-01
1.589606419564386641e-01
1.589606419564386641e-01
1.589606419564386641e-01
1.620175773786778628e-01
1.620175773786778628e-01
1.513183034008406536e-01
1.513183034008406536e-01
1.513183034008406536e-01
1.455865494841421526e-01
1.455865494841421526e-01
1.681314482231562879e-01
1.681314482231562879e-01
1.681314482231562879e-01
1.585785250286587678e-01
1.585785250286587678e-01
1.730989682842949962e-01
1.730989682842949962e-01
1.730989682842949962e-01
1.643102789453572687e-01
1.643102789453572687e-01
1.555215896064195691e-01
1.555215896064195691e-01
1.555215896064195691e-01
1.658387466564768820e-01
1.658387466564768820e-01
1.581964081008788714e-01
1.581964081008788714e-01
1.581964081008788714e-01
1.669850974398165711e-01
1.669850974398165711e-01
1.513183034008406536e-01
1.513183034008406536e-01
1.513183034008406536e-01
1.406190294230034443e-01
1.406190294230034443e-01
1.474971341230416622e-01
1.474971341230416622e-01
1.474971341230416622e-01
1.669850974398165711e-01
1.669850974398165711e-01
1.406190294230034443e-01
1.406190294230034443e-01
1.406190294230034443e-01
1.402369124952235480e-01
1.402369124952235480e-01
1.371799770729843215e-01
1.371799770729843215e-01
1.371799770729843215e-01
1.455865494841421526e-01
1.455865494841421526e-01
1.654566297286969856e-01
1.654566297286969856e-01
1.654566297286969856e-01
1.474971341230416622e-01
1.474971341230416622e-01
1.379442109285441420e-01
1.379442109285441420e-01
1.379442109285441420e-01
1.463507833397019453e-01
1.463507833397019453e-01
1.547573557508597764e-01
1.547573557508597764e-01
1.547573557508597764e-01
1.348872755063049156e-01
1.348872755063049156e-01
1.383263278563240384e-01
1.383263278563240384e-01
1.383263278563240384e-01
1.436759648452426430e-01
1.436759648452426430e-01
1.620175773786778628e-01
1.620175773786778628e-01
1.620175773786778628e-01
1.379442109285441420e-01
1.379442109285441420e-01
1.631639281620175796e-01
1.631639281620175796e-01
1.631639281620175796e-01
1.505540695452808608e-01
1.505540695452808608e-01
1.303018723729461315e-01
1.303018723729461315e-01
1.303018723729461315e-01
1.471150171952617380e-01
1.471150171952617380e-01
1.589606419564386641e-01
1.589606419564386641e-01
1.589606419564386641e-01
1.589606419564386641e-01
1.589606419564386641e-01
1.585785250286587678e-01
1.585785250286587678e-01
1.585785250286587678e-01
1.543752388230798522e-01
1.543752388230798522e-01
1.352693924340848397e-01
1.352693924340848397e-01
1.589606419564386641e-01
1.589606419564386641e-01
1.589606419564386641e-01
1.551394726786396727e-01
1.551394726786396727e-01
1.356515093618647361e-01
1.356515093618647361e-01
1.356515093618647361e-01
1.574321742453190787e-01
1.574321742453190787e-01
1.497898356897210681e-01
1.497898356897210681e-01
1.497898356897210681e-01
1.264807030951471123e-01
1.264807030951471123e-01
1.306839893007260278e-01
1.306839893007260278e-01
1.306839893007260278e-01
1.337409247229652265e-01
1.337409247229652265e-01
1.226595338173481070e-01
1.226595338173481070e-01
1.226595338173481070e-01
1.455865494841421526e-01
1.455865494841421526e-01
1.299197554451662073e-01
1.299197554451662073e-01
1.299197554451662073e-01
1.547573557508597764e-01
1.547573557508597764e-01
1.524646541841803704e-01
1.524646541841803704e-01
1.524646541841803704e-01
1.268628200229270087e-01
1.268628200229270087e-01
1.226595338173481070e-01
1.226595338173481070e-01
1.226595338173481070e-01
1.482613679786014549e-01
1.482613679786014549e-01
1.291555215896064146e-01
1.291555215896064146e-01
1.291555215896064146e-01
1.176920137562093988e-01
1.176920137562093988e-01
1.383263278563240384e-01
1.383263278563240384e-01
1.383263278563240384e-01
1.348872755063049156e-01
1.348872755063049156e-01
1.192204814673289981e-01
1.192204814673289981e-01
1.192204814673289981e-01
1.238058846006878100e-01
1.238058846006878100e-01
1.448223156285823598e-01
1.448223156285823598e-01
1.448223156285823598e-01
1.436759648452426430e-01
1.436759648452426430e-01
1.421474971341230298e-01
1.421474971341230298e-01
1.421474971341230298e-01
1.241880015284677063e-01
1.241880015284677063e-01
1.127244936950706905e-01
1.127244936950706905e-01
1.127244936950706905e-01
1.157814291173099031e-01
1.157814291173099031e-01
1.402369124952235480e-01
1.402369124952235480e-01
1.402369124952235480e-01
1.429117309896828503e-01
1.429117309896828503e-01
1.410011463507833407e-01
1.410011463507833407e-01
1.410011463507833407e-01
1.341230416507451229e-01
1.341230416507451229e-01
1.165456629728696958e-01
1.165456629728696958e-01
1.165456629728696958e-01
1.310661062285059242e-01
1.310661062285059242e-01
1.169277799006495921e-01
1.169277799006495921e-01
1.169277799006495921e-01
1.528467711119602668e-01
1.528467711119602668e-01
1.218952999617883004e-01
1.218952999617883004e-01
1.218952999617883004e-01
1.539931218952999559e-01
1.539931218952999559e-01
1.218952999617883004e-01
1.218952999617883004e-01
1.218952999617883004e-01
1.329766908674054338e-01
1.329766908674054338e-01
1.383263278563240384e-01
1.383263278563240384e-01
1.383263278563240384e-01
1.646923958731371929e-01
1.646923958731371929e-01
1.696599159342759011e-01
1.696599159342759011e-01
1.696599159342759011e-01
1.738632021398547889e-01
1.738632021398547889e-01
1.597248758119984846e-01
1.597248758119984846e-01
1.597248758119984846e-01
1.799770729843332140e-01
1.799770729843332140e-01
1.719526175009552793e-01
1.719526175009552793e-01
1.719526175009552793e-01
1.811234237676729031e-01
1.811234237676729031e-01
1.922048146732900364e-01
1.922048146732900364e-01
1.922048146732900364e-01
2.021398547955674529e-01
2.021398547955674529e-01
2.128391287734046622e-01
2.128391287734046622e-01
2.128391287734046622e-01
2.479938861291555163e-01
2.479938861291555163e-01
2.655712648070309712e-01
2.655712648070309712e-01
2.655712648070309712e-01
2.678639663737103493e-01
2.678639663737103493e-01
2.686282002292701421e-01
2.686282002292701421e-01
2.686282002292701421e-01
2.804738249904470959e-01
2.804738249904470959e-01
2.984333205961023916e-01
2.984333205961023916e-01
2.984333205961023916e-01
3.171570500573175355e-01
3.171570500573175355e-01
3.305311425296140748e-01
3.305311425296140748e-01
3.305311425296140748e-01
3.477264042797095778e-01
3.477264042797095778e-01
3.553687428353076161e-01
3.553687428353076161e-01
3.553687428353076161e-01
3.996943064577760940e-01
3.996943064577760940e-01
4.065724111578142841e-01
4.065724111578142841e-01
4.065724111578142841e-01
4.100114635078334069e-01
4.100114635078334069e-01
4.149789835689721151e-01
4.149789835689721151e-01
4.149789835689721151e-01
4.459304547191440538e-01
4.459304547191440538e-01
4.359954145968666372e-01
4.359954145968666372e-01
4.359954145968666372e-01
4.707680550248375950e-01
4.707680550248375950e-01
4.665647688192586795e-01
4.665647688192586795e-01
4.665647688192586795e-01
4.635078333970195086e-01
4.635078333970195086e-01
5.032479938861291746e-01
5.032479938861291746e-01
5.032479938861291746e-01
4.807030951471150115e-01
4.807030951471150115e-01
5.059228123805884492e-01
5.059228123805884492e-01
5.059228123805884492e-01
4.956056553305311363e-01
4.956056553305311363e-01
5.001910584638900037e-01
5.001910584638900037e-01
5.001910584638900037e-01
5.200611387084448367e-01
5.200611387084448367e-01
5.128009170806266948e-01
5.128009170806266948e-01
5.128009170806266948e-01
5.418418035918991515e-01
5.418418035918991515e-01
5.162399694306457620e-01
5.162399694306457620e-01
5.162399694306457620e-01
5.219717233473443185e-01
5.219717233473443185e-01
5.456629728696981152e-01
5.456629728696981152e-01
5.261750095529231785e-01
5.261750095529231785e-01
5.261750095529231785e-01
5.406954528085594625e-01
5.406954528085594625e-01
5.235001910584639040e-01
5.235001910584639040e-01
5.235001910584639040e-01
5.242644249140236967e-01
5.242644249140236967e-01
5.491020252197171825e-01
5.491020252197171825e-01
5.491020252197171825e-01
5.277034772640427640e-01
5.277034772640427640e-01
5.208253725640046294e-01
5.208253725640046294e-01
5.208253725640046294e-01
5.399312189529996697e-01
5.399312189529996697e-01
5.269392434084829713e-01
5.269392434084829713e-01
5.269392434084829713e-01
5.257928926251432822e-01
5.257928926251432822e-01
5.212074894917845258e-01
5.212074894917845258e-01
5.212074894917845258e-01
5.093618647306075164e-01
5.093618647306075164e-01
5.078333970194879310e-01
5.078333970194879310e-01
5.078333970194879310e-01
5.028658769583492782e-01
5.028658769583492782e-01
5.009552923194497964e-01
5.009552923194497964e-01
5.009552923194497964e-01
5.047764615972487601e-01
5.047764615972487601e-01
5.246465418418035931e-01
5.246465418418035931e-01
5.246465418418035931e-01
5.120366832250669020e-01
5.120366832250669020e-01
5.120366832250669020e-01
5.120366832250669020e-01
5.120366832250669020e-01
4.891096675582728426e-01
4.891096675582728426e-01
5.047764615972487601e-01
5.047764615972487601e-01
5.047764615972487601e-01
5.028658769583492782e-01
5.028658769583492782e-01
4.764998089415360960e-01
4.764998089415360960e-01
4.764998089415360960e-01
4.898739014138326353e-01
4.898739014138326353e-01
4.707680550248375950e-01
4.707680550248375950e-01
4.707680550248375950e-01
4.921666029805120135e-01
4.921666029805120135e-01
4.780282766526557370e-01
4.780282766526557370e-01
4.780282766526557370e-01
4.631257164692396122e-01
4.631257164692396122e-01
4.585403133358808003e-01
4.585403133358808003e-01
4.585403133358808003e-01
4.776461597248757851e-01
4.776461597248757851e-01
4.818494459304547006e-01
4.818494459304547006e-01
4.818494459304547006e-01
4.753534581581964069e-01
4.753534581581964069e-01
4.508979747802827620e-01
4.508979747802827620e-01
4.508979747802827620e-01
4.463125716469239501e-01
4.463125716469239501e-01
4.444019870080244683e-01
4.444019870080244683e-01
4.444019870080244683e-01
4.726786396637370768e-01
4.726786396637370768e-01
4.444019870080244683e-01
4.444019870080244683e-01
4.444019870080244683e-01
4.631257164692396122e-01
4.631257164692396122e-01
4.436377531524646756e-01
4.436377531524646756e-01
4.436377531524646756e-01
4.489873901413832802e-01
4.489873901413832802e-01
4.356132976690867409e-01
4.356132976690867409e-01
4.356132976690867409e-01
4.577760794803209521e-01
4.577760794803209521e-01
4.573939625525410557e-01
4.573939625525410557e-01
4.573939625525410557e-01
4.570118456247611594e-01
4.570118456247611594e-01
4.329384791746274108e-01
4.329384791746274108e-01
4.329384791746274108e-01
4.501337409247229693e-01
4.501337409247229693e-01
4.512800917080626584e-01
4.512800917080626584e-01
4.512800917080626584e-01
4.505158578525028656e-01
4.505158578525028656e-01
4.306457776079480326e-01
4.306457776079480326e-01
4.306457776079480326e-01
4.455483377913641574e-01
4.455483377913641574e-01
4.375238823079862227e-01
4.375238823079862227e-01
4.375238823079862227e-01
4.119220481467328887e-01
4.119220481467328887e-01
4.088651127244937178e-01
4.088651127244937178e-01
4.088651127244937178e-01
4.134505158578525297e-01
4.134505158578525297e-01
4.260603744745892207e-01
4.260603744745892207e-01
4.260603744745892207e-01
4.092472296522736142e-01
4.092472296522736142e-01
4.023691249522353686e-01
4.023691249522353686e-01
4.023691249522353686e-01
3.996943064577760940e-01
3.996943064577760940e-01
4.046618265189148023e-01
4.046618265189148023e-01
4.046618265189148023e-01
4.061902942300343877e-01
4.061902942300343877e-01
3.844096293465800729e-01
3.844096293465800729e-01
3.844096293465800729e-01
4.092472296522736142e-01
4.092472296522736142e-01
3.951089033244172821e-01
3.951089033244172821e-01
3.951089033244172821e-01
3.687428353076040999e-01
3.687428353076040999e-01
3.863202139854795547e-01
3.863202139854795547e-01
3.863202139854795547e-01
3.645395491020252399e-01
3.645395491020252399e-01
3.637753152464653916e-01
3.637753152464653916e-01
3.637753152464653916e-01
3.618647306075659098e-01
3.618647306075659098e-01
3.580435613297668906e-01
3.580435613297668906e-01
3.580435613297668906e-01
3.431410011463507659e-01
3.431410011463507659e-01
3.630110813909055989e-01
3.630110813909055989e-01
3.630110813909055989e-01
3.473442873519296814e-01
3.473442873519296814e-01
3.240351547573557256e-01
3.240351547573557256e-01
3.240351547573557256e-01
3.167749331295376392e-01
3.167749331295376392e-01
3.152464654184180537e-01
3.152464654184180537e-01
3.152464654184180537e-01
3.374092472296522649e-01
3.374092472296522649e-01
3.087504776461597045e-01
3.087504776461597045e-01
3.087504776461597045e-01
3.095147115017195527e-01
3.095147115017195527e-01
3.247993886129155738e-01
3.247993886129155738e-01
3.247993886129155738e-01
2.942300343905234761e-01
2.942300343905234761e-01
2.877340466182651824e-01
2.877340466182651824e-01
2.877340466182651824e-01
3.045471914405808445e-01
3.045471914405808445e-01
2.842949942682460596e-01
2.842949942682460596e-01
2.781811234237676622e-01
2.781811234237676622e-01
2.781811234237676622e-01
2.735957202904088503e-01
2.735957202904088503e-01
2.693924340848299348e-01
2.693924340848299348e-01
2.693924340848299348e-01
2.988154375238822880e-01
2.988154375238822880e-01
2.720672525792892649e-01
2.720672525792892649e-01
2.720672525792892649e-01
2.923194497516239942e-01
2.923194497516239942e-01
2.713030187237294721e-01
2.713030187237294721e-01
2.713030187237294721e-01
2.697745510126098312e-01
2.697745510126098312e-01
2.609858616736721593e-01
2.609858616736721593e-01
2.609858616736721593e-01
2.697745510126098312e-01
2.697745510126098312e-01
2.613679786014520556e-01
2.613679786014520556e-01
2.613679786014520556e-01
2.544898739014138100e-01
2.544898739014138100e-01
2.697745510126098312e-01
2.697745510126098312e-01
2.697745510126098312e-01
2.735957202904088503e-01
2.735957202904088503e-01
2.793274742071073513e-01
2.793274742071073513e-01
2.793274742071073513e-01
2.735957202904088503e-01
2.735957202904088503e-01
2.751241880015284913e-01
2.751241880015284913e-01
2.751241880015284913e-01
2.628964463125716411e-01
2.628964463125716411e-01
2.846771111960260114e-01
2.846771111960260114e-01
2.846771111960260114e-01
2.598395108903324147e-01
2.598395108903324147e-01
2.835307604126862668e-01
2.835307604126862668e-01
2.835307604126862668e-01
2.846771111960260114e-01
2.846771111960260114e-01
2.842949942682460596e-01
2.842949942682460596e-01
2.842949942682460596e-01
2.590752770347726219e-01
2.590752770347726219e-01
2.793274742071073513e-01
2.793274742071073513e-01
2.793274742071073513e-01
2.583110431792128292e-01
2.583110431792128292e-01
2.502865876958349500e-01
2.502865876958349500e-01
2.502865876958349500e-01
2.800917080626671996e-01
2.800917080626671996e-01
2.617500955292319520e-01
2.617500955292319520e-01
2.617500955292319520e-01
2.552541077569736583e-01
2.552541077569736583e-01
2.858234619793657005e-01
2.858234619793657005e-01
2.858234619793657005e-01
2.548719908291937064e-01
2.548719908291937064e-01
2.625143293847917447e-01
2.625143293847917447e-01
2.625143293847917447e-01
2.590752770347726219e-01
2.590752770347726219e-01
2.502865876958349500e-01
2.502865876958349500e-01
2.502865876958349500e-01
2.556362246847535546e-01
2.556362246847535546e-01
2.571646923958731401e-01
2.571646923958731401e-01
2.571646923958731401e-01
2.774168895682078695e-01
2.774168895682078695e-01
2.709209017959495758e-01
2.709209017959495758e-01
2.709209017959495758e-01
2.781811234237676622e-01
2.781811234237676622e-01
2.510508215513947428e-01
2.510508215513947428e-01
2.510508215513947428e-01
2.491402369124952332e-01
2.491402369124952332e-01
2.751241880015284913e-01
2.751241880015284913e-01
2.751241880015284913e-01
2.613679786014520556e-01
2.613679786014520556e-01
2.418800152846771190e-01
2.418800152846771190e-01
2.418800152846771190e-01
2.583110431792128292e-01
2.583110431792128292e-01
2.399694306457776094e-01
2.399694306457776094e-01
2.399694306457776094e-01
2.564004585403133474e-01
2.564004585403133474e-01
2.548719908291937064e-01
2.548719908291937064e-01
2.548719908291937064e-01
2.632785632403515375e-01
2.632785632403515375e-01
2.514329384791746391e-01
2.514329384791746391e-01
2.514329384791746391e-01
2.414978983568972226e-01
2.414978983568972226e-01
2.407336645013374021e-01
2.407336645013374021e-01
2.407336645013374021e-01
2.338555598012991843e-01
2.338555598012991843e-01
2.552541077569736583e-01
2.552541077569736583e-01
2.552541077569736583e-01
2.342376767290791084e-01
2.342376767290791084e-01
2.350019105846389011e-01
2.350019105846389011e-01
2.350019105846389011e-01
2.243026366068016919e-01
2.243026366068016919e-01
2.506687046236148464e-01
2.506687046236148464e-01
2.506687046236148464e-01
2.571646923958731401e-01
2.571646923958731401e-01
2.430263660680168081e-01
2.430263660680168081e-01
2.430263660680168081e-01
2.499044707680550259e-01
2.499044707680550259e-01
2.502865876958349500e-01
2.502865876958349500e-01
2.502865876958349500e-01
2.189529996178830595e-01
2.189529996178830595e-01
2.330913259457393916e-01
2.330913259457393916e-01
2.330913259457393916e-01
2.372946121513183071e-01
2.372946121513183071e-01
2.181887657623232668e-01
2.181887657623232668e-01
2.181887657623232668e-01
2.101643102789453599e-01
2.101643102789453599e-01
2.128391287734046622e-01
2.128391287734046622e-01
2.128391287734046622e-01
2.376767290790982035e-01
2.376767290790982035e-01
2.369124952235384107e-01
2.369124952235384107e-01
2.369124952235384107e-01
2.166602980512036813e-01
2.166602980512036813e-01
2.021398547955674529e-01
2.021398547955674529e-01
2.021398547955674529e-01
2.304165074512800893e-01
2.304165074512800893e-01
2.304165074512800893e-01
2.304165074512800893e-01
2.304165074512800893e-01
2.002292701566679434e-01
2.002292701566679434e-01
2.105464272067252562e-01
2.105464272067252562e-01
2.105464272067252562e-01
2.174245319067634741e-01
2.174245319067634741e-01
2.216278181123423896e-01
2.216278181123423896e-01
2.216278181123423896e-01
2.055789071455865480e-01
2.055789071455865480e-01
1.994650363011081506e-01
1.994650363011081506e-01
1.944975162399694424e-01
1.944975162399694424e-01
1.944975162399694424e-01
2.204814673290026728e-01
2.204814673290026728e-01
1.952617500955292351e-01
1.952617500955292351e-01
1.952617500955292351e-01
2.132212457011845586e-01
2.132212457011845586e-01
1.891478792510508100e-01
1.891478792510508100e-01
1.891478792510508100e-01
1.883836453954910173e-01
1.883836453954910173e-01
1.849445930454719222e-01
1.849445930454719222e-01
1.849445930454719222e-01
1.933511654566297255e-01
1.933511654566297255e-01
1.845624761176920259e-01
1.845624761176920259e-01
1.845624761176920259e-01
1.964081008788689242e-01
1.964081008788689242e-01
1.795949560565533176e-01
1.795949560565533176e-01
1.795949560565533176e-01
1.994650363011081506e-01
1.994650363011081506e-01
1.780664883454337044e-01
1.780664883454337044e-01
1.780664883454337044e-01
2.032862055789071420e-01
2.032862055789071420e-01
1.792128391287733935e-01
1.792128391287733935e-01
1.792128391287733935e-01
1.742453190676346853e-01
1.742453190676346853e-01
1.730989682842949962e-01
1.730989682842949962e-01
1.730989682842949962e-01
1.864730607565915077e-01
1.864730607565915077e-01
1.784486052732136008e-01
1.784486052732136008e-01
1.784486052732136008e-01
1.727168513565150998e-01
1.727168513565150998e-01
1.704241497898356938e-01
1.704241497898356938e-01
1.704241497898356938e-01
1.880015284677111209e-01
1.880015284677111209e-01
1.765380206343140912e-01
1.765380206343140912e-01
1.765380206343140912e-01
1.929690485288498292e-01
1.929690485288498292e-01
1.876194115399312246e-01
1.876194115399312246e-01
1.876194115399312246e-01
1.623996943064577869e-01
1.623996943064577869e-01
1.643102789453572687e-01
1.643102789453572687e-01
1.643102789453572687e-01
1.620175773786778628e-01
1.620175773786778628e-01
1.757737867787542985e-01
1.757737867787542985e-01
1.757737867787542985e-01
1.601069927397783810e-01
1.601069927397783810e-01
1.815055406954527994e-01
1.815055406954527994e-01
1.815055406954527994e-01
1.757737867787542985e-01
1.757737867787542985e-01
1.826518914787925163e-01
1.826518914787925163e-01
1.826518914787925163e-01
1.608712265953381737e-01
1.608712265953381737e-01
1.627818112342376833e-01
1.627818112342376833e-01
1.627818112342376833e-01
1.803591899121131104e-01
1.803591899121131104e-01
1.620175773786778628e-01
1.620175773786778628e-01
1.620175773786778628e-01
1.646923958731371929e-01
1.646923958731371929e-01
1.520825372564004463e-01
1.520825372564004463e-01
1.520825372564004463e-01
1.788307222009934971e-01
1.788307222009934971e-01
1.463507833397019453e-01
1.463507833397019453e-01
1.463507833397019453e-01
1.765380206343140912e-01
1.765380206343140912e-01
1.765380206343140912e-01
1.765380206343140912e-01
1.765380206343140912e-01
1.570500573175391545e-01
1.570500573175391545e-01
1.574321742453190787e-01
1.574321742453190787e-01
1.574321742453190787e-01
1.520825372564004463e-01
1.520825372564004463e-01
1.547573557508597764e-01
1.547573557508597764e-01
1.547573557508597764e-01
1.486434849063813513e-01
1.486434849063813513e-01
1.719526175009552793e-01
1.719526175009552793e-01
1.719526175009552793e-01
1.482613679786014549e-01
1.482613679786014549e-01
1.547573557508597764e-01
1.547573557508597764e-01
1.547573557508597764e-01
1.708062667176155902e-01
1.708062667176155902e-01
1.643102789453572687e-01
1.643102789453572687e-01
1.643102789453572687e-01
1.509361864730607572e-01
1.509361864730607572e-01
1.539931218952999559e-01
1.539931218952999559e-01
1.539931218952999559e-01
1.505540695452808608e-01
1.505540695452808608e-01
1.612533435231180701e-01
1.612533435231180701e-01
1.612533435231180701e-01
1.604891096675582773e-01
1.604891096675582773e-01
1.306839893007260278e-01
1.306839893007260278e-01
1.306839893007260278e-01
1.306839893007260278e-01
1.306839893007260278e-01
1.341230416507451229e-01
1.341230416507451229e-01
1.341230416507451229e-01
1.501719526175009645e-01
1.501719526175009645e-01
1.429117309896828503e-01
1.429117309896828503e-01
1.429117309896828503e-01
1.486434849063813513e-01
1.486434849063813513e-01
1.299197554451662073e-01
1.299197554451662073e-01
1.299197554451662073e-01
1.601069927397783810e-01
1.601069927397783810e-01
1.303018723729461315e-01
1.303018723729461315e-01
1.303018723729461315e-01
1.406190294230034443e-01
1.406190294230034443e-01
1.471150171952617380e-01
1.471150171952617380e-01
1.471150171952617380e-01
1.444401987008024357e-01
1.444401987008024357e-01
1.394726786396637275e-01
1.394726786396637275e-01
1.394726786396637275e-01
1.513183034008406536e-01
1.513183034008406536e-01
1.532288880397401631e-01
1.532288880397401631e-01
1.532288880397401631e-01
1.532288880397401631e-01
1.532288880397401631e-01
1.383263278563240384e-01
1.383263278563240384e-01
1.383263278563240384e-01
1.455865494841421526e-01
1.455865494841421526e-01
1.524646541841803704e-01
1.524646541841803704e-01
1.524646541841803704e-01
1.459686664119220489e-01
1.459686664119220489e-01
1.517004203286205499e-01
1.517004203286205499e-01
1.517004203286205499e-01
1.303018723729461315e-01
1.303018723729461315e-01
1.379442109285441420e-01
1.379442109285441420e-01
1.581964081008788714e-01
1.581964081008788714e-01
1.581964081008788714e-01
1.444401987008024357e-01
1.444401987008024357e-01
1.398547955674436516e-01
1.398547955674436516e-01
1.398547955674436516e-01
1.532288880397401631e-01
1.532288880397401631e-01
1.551394726786396727e-01
1.551394726786396727e-01
1.551394726786396727e-01
1.417653802063431334e-01
1.417653802063431334e-01
1.471150171952617380e-01
1.471150171952617380e-01
1.471150171952617380e-01
1.272449369507069050e-01
1.272449369507069050e-01
1.268628200229270087e-01
1.268628200229270087e-01
1.268628200229270087e-01
1.367978601452044252e-01
1.367978601452044252e-01
1.245701184562476166e-01
1.245701184562476166e-01
1.245701184562476166e-01
1.539931218952999559e-01
1.539931218952999559e-01
1.410011463507833407e-01
1.410011463507833407e-01
1.410011463507833407e-01
1.314482231562858205e-01
1.314482231562858205e-01
1.482613679786014549e-01
1.482613679786014549e-01
1.482613679786014549e-01
1.207489491784486113e-01
1.207489491784486113e-01
1.295376385173863110e-01
1.295376385173863110e-01
1.295376385173863110e-01
1.348872755063049156e-01
1.348872755063049156e-01
1.348872755063049156e-01
1.348872755063049156e-01
1.348872755063049156e-01
1.364157432174245288e-01
1.364157432174245288e-01
1.188383645395491017e-01
1.188383645395491017e-01
1.188383645395491017e-01
1.455865494841421526e-01
1.455865494841421526e-01
1.425296140619029539e-01
1.425296140619029539e-01
1.425296140619029539e-01
1.371799770729843215e-01
1.371799770729843215e-01
1.249522353840275130e-01
1.249522353840275130e-01
1.249522353840275130e-01
1.161635460450897994e-01
1.161635460450897994e-01
1.413832632785632371e-01
1.413832632785632371e-01
1.413832632785632371e-01
1.253343523118074232e-01
1.253343523118074232e-01
1.379442109285441420e-01
1.379442109285441420e-01
1.379442109285441420e-01
1.257164692395873196e-01
1.257164692395873196e-01
1.134887275506304971e-01
1.134887275506304971e-01
1.134887275506304971e-01
1.345051585785250192e-01
1.345051585785250192e-01
1.272449369507069050e-01
1.272449369507069050e-01
1.272449369507069050e-01
1.218952999617883004e-01
1.218952999617883004e-01
1.329766908674054338e-01
1.329766908674054338e-01
1.329766908674054338e-01
1.329766908674054338e-01
1.329766908674054338e-01
1.142529614061902898e-01
1.142529614061902898e-01
1.142529614061902898e-01
1.306839893007260278e-01
1.306839893007260278e-01
1.054642720672525763e-01
1.054642720672525763e-01
1.054642720672525763e-01
