2.265953381734810979e-01
2.258311043179212774e-01
2.258311043179212774e-01
2.258311043179212774e-01
2.353840275124187975e-01
2.353840275124187975e-01
2.243026366068016919e-01
2.243026366068016919e-01
2.243026366068016919e-01
2.227741688956820787e-01
2.227741688956820787e-01
2.304165074512800893e-01
2.304165074512800893e-01
2.304165074512800893e-01
2.250668704623614846e-01
2.250668704623614846e-01
2.235384027512418714e-01
2.235384027512418714e-01
2.235384027512418714e-01
2.292701566679404002e-01
2.292701566679404002e-01
2.227741688956820787e-01
2.227741688956820787e-01
2.227741688956820787e-01
2.220099350401222860e-01
2.220099350401222860e-01
2.178066488345433704e-01
2.178066488345433704e-01
2.178066488345433704e-01
2.166602980512036813e-01
2.166602980512036813e-01
2.258311043179212774e-01
2.258311043179212774e-01
2.258311043179212774e-01
2.185708826901031632e-01
2.185708826901031632e-01
2.162781811234237572e-01
2.162781811234237572e-01
2.162781811234237572e-01
2.178066488345433704e-01
2.178066488345433704e-01
2.166602980512036813e-01
2.166602980512036813e-01
2.166602980512036813e-01
2.216278181123423896e-01
2.216278181123423896e-01
2.243026366068016919e-01
2.243026366068016919e-01
2.243026366068016919e-01
2.197172334734428800e-01
2.197172334734428800e-01
2.193351165456629837e-01
2.193351165456629837e-01
2.158960641956438609e-01
2.158960641956438609e-01
2.158960641956438609e-01
2.151318303400840681e-01
2.151318303400840681e-01
2.170424149789835777e-01
2.170424149789835777e-01
2.170424149789835777e-01
2.193351165456629837e-01
2.193351165456629837e-01
2.185708826901031632e-01
2.185708826901031632e-01
2.185708826901031632e-01
2.143675964845242754e-01
2.143675964845242754e-01
2.235384027512418714e-01
2.235384027512418714e-01
2.235384027512418714e-01
2.193351165456629837e-01
2.193351165456629837e-01
2.166602980512036813e-01
2.166602980512036813e-01
2.166602980512036813e-01
2.105464272067252562e-01
2.105464272067252562e-01
2.162781811234237572e-01
2.162781811234237572e-01
2.162781811234237572e-01
2.174245319067634741e-01
2.174245319067634741e-01
2.204814673290026728e-01
2.204814673290026728e-01
2.204814673290026728e-01
2.128391287734046622e-01
2.128391287734046622e-01
2.231562858234619751e-01
2.231562858234619751e-01
2.231562858234619751e-01
2.189529996178830595e-01
2.189529996178830595e-01
2.101643102789453599e-01
2.101643102789453599e-01
2.101643102789453599e-01
2.147497134123041718e-01
2.147497134123041718e-01
2.189529996178830595e-01
2.189529996178830595e-01
2.189529996178830595e-01
2.185708826901031632e-01
2.185708826901031632e-01
2.170424149789835777e-01
2.170424149789835777e-01
2.170424149789835777e-01
2.174245319067634741e-01
2.174245319067634741e-01
2.116927779900649731e-01
2.116927779900649731e-01
2.116927779900649731e-01
2.158960641956438609e-01
2.158960641956438609e-01
2.094000764233855671e-01
2.094000764233855671e-01
2.094000764233855671e-01
2.143675964845242754e-01
2.143675964845242754e-01
2.105464272067252562e-01
2.105464272067252562e-01
2.105464272067252562e-01
2.136033626289644549e-01
2.136033626289644549e-01
2.055789071455865480e-01
2.055789071455865480e-01
2.055789071455865480e-01
2.078716087122659539e-01
2.078716087122659539e-01
2.174245319067634741e-01
2.174245319067634741e-01
2.174245319067634741e-01
2.082537256400458503e-01
2.082537256400458503e-01
2.197172334734428800e-01
2.197172334734428800e-01
2.197172334734428800e-01
2.094000764233855671e-01
2.094000764233855671e-01
2.116927779900649731e-01
2.116927779900649731e-01
2.116927779900649731e-01
2.071073748567061612e-01
2.071073748567061612e-01
2.143675964845242754e-01
2.143675964845242754e-01
2.143675964845242754e-01
2.128391287734046622e-01
2.128391287734046622e-01
2.086358425678257467e-01
2.086358425678257467e-01
2.086358425678257467e-01
2.143675964845242754e-01
2.143675964845242754e-01
2.162781811234237572e-01
2.162781811234237572e-01
2.162781811234237572e-01
2.055789071455865480e-01
2.055789071455865480e-01
2.208635842567825691e-01
2.208635842567825691e-01
2.208635842567825691e-01
2.143675964845242754e-01
2.143675964845242754e-01
2.109285441345051526e-01
2.109285441345051526e-01
2.109285441345051526e-01
2.094000764233855671e-01
2.094000764233855671e-01
2.097821933511654635e-01
2.097821933511654635e-01
2.097821933511654635e-01
2.139854795567443513e-01
2.139854795567443513e-01
2.174245319067634741e-01
2.174245319067634741e-01
2.174245319067634741e-01
2.059610240733664444e-01
2.059610240733664444e-01
2.147497134123041718e-01
2.147497134123041718e-01
2.147497134123041718e-01
2.082537256400458503e-01
2.082537256400458503e-01
2.136033626289644549e-01
2.136033626289644549e-01
2.136033626289644549e-01
2.132212457011845586e-01
2.132212457011845586e-01
2.162781811234237572e-01
2.162781811234237572e-01
2.162781811234237572e-01
2.151318303400840681e-01
2.151318303400840681e-01
2.074894917844860576e-01
2.074894917844860576e-01
2.074894917844860576e-01
2.197172334734428800e-01
2.197172334734428800e-01
2.120748949178448695e-01
2.120748949178448695e-01
2.120748949178448695e-01
2.055789071455865480e-01
2.055789071455865480e-01
2.143675964845242754e-01
2.143675964845242754e-01
2.143675964845242754e-01
2.094000764233855671e-01
2.094000764233855671e-01
2.139854795567443513e-01
2.139854795567443513e-01
2.139854795567443513e-01
2.113106610622850490e-01
2.113106610622850490e-01
2.162781811234237572e-01
2.162781811234237572e-01
2.162781811234237572e-01
2.128391287734046622e-01
2.128391287734046622e-01
2.067252579289262648e-01
2.067252579289262648e-01
2.067252579289262648e-01
2.082537256400458503e-01
2.082537256400458503e-01
2.124570118456247658e-01
2.124570118456247658e-01
2.124570118456247658e-01
2.055789071455865480e-01
2.055789071455865480e-01
2.208635842567825691e-01
2.208635842567825691e-01
2.208635842567825691e-01
2.174245319067634741e-01
2.174245319067634741e-01
2.200993504012227764e-01
2.200993504012227764e-01
2.200993504012227764e-01
2.143675964845242754e-01
2.143675964845242754e-01
2.063431410011463407e-01
2.063431410011463407e-01
2.063431410011463407e-01
2.105464272067252562e-01
2.105464272067252562e-01
2.074894917844860576e-01
2.074894917844860576e-01
2.074894917844860576e-01
2.132212457011845586e-01
2.132212457011845586e-01
2.109285441345051526e-01
2.109285441345051526e-01
2.109285441345051526e-01
2.124570118456247658e-01
2.124570118456247658e-01
2.067252579289262648e-01
2.067252579289262648e-01
2.067252579289262648e-01
2.105464272067252562e-01
2.105464272067252562e-01
2.055789071455865480e-01
2.055789071455865480e-01
2.155139472678639645e-01
2.155139472678639645e-01
2.155139472678639645e-01
2.124570118456247658e-01
2.124570118456247658e-01
2.074894917844860576e-01
2.074894917844860576e-01
2.074894917844860576e-01
2.139854795567443513e-01
2.139854795567443513e-01
2.067252579289262648e-01
2.067252579289262648e-01
2.067252579289262648e-01
2.067252579289262648e-01
2.067252579289262648e-01
2.040504394344669348e-01
2.040504394344669348e-01
2.040504394344669348e-01
2.204814673290026728e-01
2.204814673290026728e-01
2.097821933511654635e-01
2.097821933511654635e-01
2.097821933511654635e-01
2.124570118456247658e-01
2.124570118456247658e-01
2.048146732900267553e-01
2.048146732900267553e-01
2.048146732900267553e-01
2.090179594956056430e-01
2.090179594956056430e-01
2.078716087122659539e-01
2.078716087122659539e-01
2.078716087122659539e-01
2.051967902178066516e-01
2.051967902178066516e-01
2.193351165456629837e-01
2.193351165456629837e-01
2.193351165456629837e-01
2.158960641956438609e-01
2.158960641956438609e-01
2.094000764233855671e-01
2.094000764233855671e-01
2.094000764233855671e-01
2.097821933511654635e-01
2.097821933511654635e-01
2.174245319067634741e-01
2.174245319067634741e-01
2.174245319067634741e-01
2.109285441345051526e-01
2.109285441345051526e-01
2.036683225066870384e-01
2.036683225066870384e-01
2.036683225066870384e-01
2.139854795567443513e-01
2.139854795567443513e-01
2.082537256400458503e-01
2.082537256400458503e-01
2.082537256400458503e-01
2.113106610622850490e-01
2.113106610622850490e-01
2.044325563622468589e-01
2.044325563622468589e-01
2.044325563622468589e-01
2.021398547955674529e-01
2.021398547955674529e-01
2.155139472678639645e-01
2.155139472678639645e-01
2.155139472678639645e-01
2.086358425678257467e-01
2.086358425678257467e-01
2.116927779900649731e-01
2.116927779900649731e-01
2.116927779900649731e-01
2.082537256400458503e-01
2.082537256400458503e-01
2.124570118456247658e-01
2.124570118456247658e-01
2.124570118456247658e-01
2.101643102789453599e-01
2.101643102789453599e-01
2.116927779900649731e-01
2.116927779900649731e-01
2.116927779900649731e-01
2.174245319067634741e-01
2.174245319067634741e-01
2.105464272067252562e-01
2.105464272067252562e-01
2.105464272067252562e-01
2.086358425678257467e-01
2.086358425678257467e-01
2.105464272067252562e-01
2.105464272067252562e-01
2.105464272067252562e-01
2.170424149789835777e-01
2.170424149789835777e-01
2.128391287734046622e-01
2.128391287734046622e-01
2.128391287734046622e-01
2.097821933511654635e-01
2.097821933511654635e-01
2.223920519679021823e-01
2.223920519679021823e-01
2.223920519679021823e-01
2.147497134123041718e-01
2.147497134123041718e-01
2.239205196790217678e-01
2.239205196790217678e-01
2.239205196790217678e-01
2.216278181123423896e-01
2.216278181123423896e-01
2.273595720290408906e-01
2.273595720290408906e-01
2.273595720290408906e-01
2.269774551012609942e-01
2.269774551012609942e-01
2.338555598012991843e-01
2.338555598012991843e-01
2.338555598012991843e-01
2.285059228123805797e-01
2.285059228123805797e-01
2.353840275124187975e-01
2.353840275124187975e-01
2.353840275124187975e-01
2.342376767290791084e-01
2.342376767290791084e-01
2.430263660680168081e-01
2.430263660680168081e-01
2.430263660680168081e-01
2.426442491402369117e-01
2.426442491402369117e-01
2.437905999235766008e-01
2.437905999235766008e-01
2.437905999235766008e-01
2.521971723347344319e-01
2.521971723347344319e-01
2.495223538402751295e-01
2.495223538402751295e-01
2.495223538402751295e-01
2.556362246847535546e-01
2.556362246847535546e-01
2.628964463125716411e-01
2.628964463125716411e-01
2.628964463125716411e-01
2.583110431792128292e-01
2.583110431792128292e-01
2.590752770347726219e-01
2.590752770347726219e-01
2.590752770347726219e-01
2.640427970959113302e-01
2.640427970959113302e-01
2.735957202904088503e-01
2.735957202904088503e-01
2.735957202904088503e-01
2.724493695070691612e-01
2.724493695070691612e-01
2.667176155903706603e-01
2.667176155903706603e-01
2.667176155903706603e-01
2.739778372181887467e-01
2.739778372181887467e-01
2.839128773404661632e-01
2.839128773404661632e-01
2.839128773404661632e-01
2.674818494459304530e-01
2.674818494459304530e-01
2.774168895682078695e-01
2.774168895682078695e-01
2.774168895682078695e-01
2.846771111960260114e-01
2.846771111960260114e-01
2.854413450515858042e-01
2.854413450515858042e-01
2.854413450515858042e-01
2.835307604126862668e-01
2.835307604126862668e-01
2.858234619793657005e-01
2.858234619793657005e-01
2.858234619793657005e-01
2.812380588460068886e-01
2.812380588460068886e-01
2.846771111960260114e-01
2.846771111960260114e-01
2.846771111960260114e-01
2.873519296904852860e-01
2.873519296904852860e-01
2.812380588460068886e-01
2.812380588460068886e-01
2.812380588460068886e-01
2.862055789071455969e-01
2.862055789071455969e-01
2.892625143293847678e-01
2.892625143293847678e-01
2.892625143293847678e-01
2.907909820405044088e-01
2.907909820405044088e-01
2.873519296904852860e-01
2.873519296904852860e-01
2.873519296904852860e-01
2.846771111960260114e-01
2.846771111960260114e-01
2.842949942682460596e-01
2.842949942682460596e-01
2.892625143293847678e-01
2.892625143293847678e-01
2.892625143293847678e-01
2.777990064959877659e-01
2.777990064959877659e-01
2.839128773404661632e-01
2.839128773404661632e-01
2.839128773404661632e-01
2.827665265571264741e-01
2.827665265571264741e-01
2.812380588460068886e-01
2.812380588460068886e-01
2.812380588460068886e-01
2.816201757737867850e-01
2.816201757737867850e-01
2.854413450515858042e-01
2.854413450515858042e-01
2.854413450515858042e-01
2.911730989682843052e-01
2.911730989682843052e-01
2.862055789071455969e-01
2.862055789071455969e-01
2.862055789071455969e-01
2.877340466182651824e-01
2.877340466182651824e-01
2.881161635460450787e-01
2.881161635460450787e-01
2.881161635460450787e-01
2.789453572793274549e-01
2.789453572793274549e-01
2.846771111960260114e-01
2.846771111960260114e-01
2.846771111960260114e-01
2.823844096293465777e-01
2.823844096293465777e-01
2.804738249904470959e-01
2.804738249904470959e-01
2.804738249904470959e-01
2.800917080626671996e-01
2.800917080626671996e-01
2.808559419182269923e-01
2.808559419182269923e-01
2.808559419182269923e-01
2.865876958349254933e-01
2.865876958349254933e-01
2.762705387848681804e-01
2.762705387848681804e-01
2.762705387848681804e-01
2.735957202904088503e-01
2.735957202904088503e-01
2.697745510126098312e-01
2.697745510126098312e-01
2.697745510126098312e-01
2.770347726404279731e-01
2.770347726404279731e-01
2.713030187237294721e-01
2.713030187237294721e-01
2.713030187237294721e-01
2.781811234237676622e-01
2.781811234237676622e-01
2.735957202904088503e-01
2.735957202904088503e-01
2.735957202904088503e-01
2.739778372181887467e-01
2.739778372181887467e-01
2.693924340848299348e-01
2.693924340848299348e-01
2.693924340848299348e-01
2.766526557126480768e-01
2.766526557126480768e-01
2.670997325181505566e-01
2.670997325181505566e-01
2.670997325181505566e-01
2.678639663737103493e-01
2.678639663737103493e-01
2.743599541459686431e-01
2.743599541459686431e-01
2.743599541459686431e-01
2.697745510126098312e-01
2.697745510126098312e-01
2.701566679403897830e-01
2.701566679403897830e-01
2.701566679403897830e-01
2.628964463125716411e-01
2.628964463125716411e-01
2.705387848681696794e-01
2.705387848681696794e-01
2.705387848681696794e-01
2.697745510126098312e-01
2.697745510126098312e-01
2.716851356515093685e-01
2.716851356515093685e-01
2.716851356515093685e-01
2.636606801681314338e-01
2.636606801681314338e-01
2.659533817348108675e-01
2.659533817348108675e-01
2.659533817348108675e-01
2.648070309514711229e-01
2.648070309514711229e-01
2.628964463125716411e-01
2.628964463125716411e-01
2.628964463125716411e-01
2.709209017959495758e-01
2.709209017959495758e-01
2.586931601069927256e-01
2.586931601069927256e-01
2.586931601069927256e-01
2.586931601069927256e-01
2.586931601069927256e-01
2.606037447458922629e-01
2.606037447458922629e-01
2.606037447458922629e-01
2.636606801681314338e-01
2.636606801681314338e-01
2.586931601069927256e-01
2.586931601069927256e-01
2.586931601069927256e-01
2.621322124570118484e-01
2.621322124570118484e-01
2.648070309514711229e-01
2.648070309514711229e-01
2.648070309514711229e-01
2.617500955292319520e-01
2.617500955292319520e-01
2.606037447458922629e-01
2.606037447458922629e-01
2.606037447458922629e-01
2.583110431792128292e-01
2.583110431792128292e-01
2.590752770347726219e-01
2.590752770347726219e-01
2.590752770347726219e-01
2.613679786014520556e-01
2.613679786014520556e-01
2.628964463125716411e-01
2.628964463125716411e-01
2.628964463125716411e-01
2.552541077569736583e-01
2.552541077569736583e-01
2.560183416125334510e-01
2.560183416125334510e-01
2.560183416125334510e-01
2.556362246847535546e-01
2.556362246847535546e-01
2.579289262514329328e-01
2.579289262514329328e-01
2.579289262514329328e-01
2.529614061902942246e-01
2.529614061902942246e-01
2.586931601069927256e-01
2.586931601069927256e-01
2.586931601069927256e-01
2.468475353458158272e-01
2.468475353458158272e-01
2.483760030569354127e-01
2.483760030569354127e-01
2.483760030569354127e-01
2.460833014902560067e-01
2.460833014902560067e-01
2.487581199847153091e-01
2.487581199847153091e-01
2.487581199847153091e-01
2.514329384791746391e-01
2.514329384791746391e-01
2.437905999235766008e-01
2.437905999235766008e-01
2.437905999235766008e-01
2.445548337791364213e-01
2.445548337791364213e-01
2.502865876958349500e-01
2.502865876958349500e-01
2.502865876958349500e-01
2.506687046236148464e-01
2.506687046236148464e-01
2.449369507069163177e-01
2.449369507069163177e-01
2.449369507069163177e-01
2.414978983568972226e-01
2.414978983568972226e-01
2.407336645013374021e-01
2.407336645013374021e-01
2.407336645013374021e-01
2.434084829957967044e-01
2.434084829957967044e-01
2.437905999235766008e-01
2.437905999235766008e-01
2.437905999235766008e-01
2.414978983568972226e-01
2.414978983568972226e-01
2.357661444401986939e-01
2.357661444401986939e-01
2.357661444401986939e-01
2.403515475735575058e-01
2.403515475735575058e-01
2.353840275124187975e-01
2.353840275124187975e-01
2.353840275124187975e-01
2.437905999235766008e-01
2.437905999235766008e-01
2.330913259457393916e-01
2.330913259457393916e-01
2.350019105846389011e-01
2.350019105846389011e-01
2.350019105846389011e-01
2.319449751623997025e-01
2.319449751623997025e-01
2.418800152846771190e-01
2.418800152846771190e-01
2.418800152846771190e-01
2.315628582346198061e-01
2.315628582346198061e-01
2.342376767290791084e-01
2.342376767290791084e-01
2.342376767290791084e-01
2.372946121513183071e-01
2.372946121513183071e-01
2.353840275124187975e-01
2.353840275124187975e-01
2.353840275124187975e-01
2.311807413068398820e-01
2.311807413068398820e-01
2.346197936568590048e-01
2.346197936568590048e-01
2.346197936568590048e-01
2.353840275124187975e-01
2.353840275124187975e-01
2.403515475735575058e-01
2.403515475735575058e-01
2.403515475735575058e-01
2.334734428735192879e-01
2.334734428735192879e-01
2.361482613679785902e-01
2.361482613679785902e-01
2.361482613679785902e-01
2.285059228123805797e-01
2.285059228123805797e-01
2.250668704623614846e-01
2.250668704623614846e-01
2.250668704623614846e-01
2.327092090179594952e-01
2.327092090179594952e-01
2.403515475735575058e-01
2.403515475735575058e-01
2.403515475735575058e-01
2.285059228123805797e-01
2.285059228123805797e-01
2.285059228123805797e-01
2.285059228123805797e-01
2.285059228123805797e-01
2.330913259457393916e-01
2.330913259457393916e-01
2.350019105846389011e-01
2.350019105846389011e-01
2.350019105846389011e-01
2.288880397401604760e-01
2.288880397401604760e-01
2.365303782957585144e-01
2.365303782957585144e-01
2.365303782957585144e-01
2.277416889568207869e-01
2.277416889568207869e-01
2.258311043179212774e-01
2.258311043179212774e-01
2.258311043179212774e-01
2.323270920901795988e-01
2.323270920901795988e-01
2.285059228123805797e-01
2.285059228123805797e-01
2.285059228123805797e-01
2.315628582346198061e-01
2.315628582346198061e-01
2.227741688956820787e-01
2.227741688956820787e-01
2.227741688956820787e-01
2.384409629346579962e-01
2.384409629346579962e-01
2.296522735957202965e-01
2.296522735957202965e-01
2.296522735957202965e-01
2.384409629346579962e-01
2.384409629346579962e-01
2.285059228123805797e-01
2.285059228123805797e-01
2.285059228123805797e-01
2.265953381734810979e-01
2.265953381734810979e-01
2.327092090179594952e-01
2.327092090179594952e-01
2.327092090179594952e-01
2.262132212457011737e-01
2.262132212457011737e-01
2.353840275124187975e-01
2.353840275124187975e-01
2.353840275124187975e-01
2.235384027512418714e-01
2.235384027512418714e-01
2.307986243790599856e-01
2.307986243790599856e-01
2.307986243790599856e-01
2.292701566679404002e-01
2.292701566679404002e-01
2.285059228123805797e-01
2.285059228123805797e-01
2.285059228123805797e-01
2.246847535345815883e-01
2.246847535345815883e-01
2.243026366068016919e-01
2.243026366068016919e-01
2.243026366068016919e-01
2.338555598012991843e-01
2.338555598012991843e-01
2.300343905235001929e-01
2.300343905235001929e-01
2.300343905235001929e-01
2.296522735957202965e-01
2.296522735957202965e-01
2.315628582346198061e-01
2.315628582346198061e-01
2.315628582346198061e-01
2.220099350401222860e-01
2.220099350401222860e-01
2.330913259457393916e-01
2.330913259457393916e-01
2.330913259457393916e-01
2.262132212457011737e-01
2.262132212457011737e-01
2.269774551012609942e-01
2.269774551012609942e-01
2.269774551012609942e-01
2.269774551012609942e-01
2.269774551012609942e-01
2.285059228123805797e-01
2.285059228123805797e-01
2.285059228123805797e-01
2.231562858234619751e-01
2.231562858234619751e-01
2.208635842567825691e-01
2.208635842567825691e-01
2.208635842567825691e-01
2.239205196790217678e-01
2.239205196790217678e-01
2.235384027512418714e-01
2.235384027512418714e-01
2.235384027512418714e-01
2.296522735957202965e-01
2.296522735957202965e-01
2.212457011845624655e-01
2.212457011845624655e-01
2.212457011845624655e-01
2.208635842567825691e-01
2.208635842567825691e-01
2.254489873901413810e-01
2.254489873901413810e-01
2.254489873901413810e-01
2.246847535345815883e-01
2.246847535345815883e-01
2.296522735957202965e-01
2.296522735957202965e-01
2.296522735957202965e-01
2.231562858234619751e-01
2.231562858234619751e-01
2.265953381734810979e-01
2.265953381734810979e-01
2.265953381734810979e-01
2.212457011845624655e-01
2.212457011845624655e-01
2.220099350401222860e-01
2.220099350401222860e-01
2.220099350401222860e-01
2.265953381734810979e-01
2.265953381734810979e-01
2.239205196790217678e-01
2.239205196790217678e-01
2.239205196790217678e-01
2.273595720290408906e-01
2.273595720290408906e-01
2.265953381734810979e-01
2.265953381734810979e-01
2.265953381734810979e-01
2.315628582346198061e-01
2.315628582346198061e-01
2.208635842567825691e-01
2.208635842567825691e-01
2.208635842567825691e-01
2.185708826901031632e-01
2.185708826901031632e-01
2.204814673290026728e-01
2.204814673290026728e-01
2.204814673290026728e-01
2.288880397401604760e-01
2.288880397401604760e-01
2.311807413068398820e-01
2.311807413068398820e-01
2.311807413068398820e-01
2.162781811234237572e-01
2.162781811234237572e-01
2.185708826901031632e-01
2.185708826901031632e-01
2.185708826901031632e-01
2.212457011845624655e-01
2.212457011845624655e-01
2.235384027512418714e-01
2.235384027512418714e-01
2.235384027512418714e-01
2.185708826901031632e-01
2.185708826901031632e-01
2.239205196790217678e-01
2.239205196790217678e-01
2.162781811234237572e-01
2.162781811234237572e-01
2.162781811234237572e-01
2.235384027512418714e-01
2.235384027512418714e-01
2.158960641956438609e-01
2.158960641956438609e-01
2.158960641956438609e-01
2.178066488345433704e-01
2.178066488345433704e-01
2.277416889568207869e-01
2.277416889568207869e-01
2.277416889568207869e-01
2.105464272067252562e-01
2.105464272067252562e-01
2.113106610622850490e-01
2.113106610622850490e-01
2.113106610622850490e-01
2.155139472678639645e-01
2.155139472678639645e-01
2.193351165456629837e-01
2.193351165456629837e-01
2.193351165456629837e-01
2.197172334734428800e-01
2.197172334734428800e-01
2.067252579289262648e-01
2.067252579289262648e-01
2.067252579289262648e-01
2.193351165456629837e-01
2.193351165456629837e-01
2.113106610622850490e-01
2.113106610622850490e-01
2.113106610622850490e-01
2.090179594956056430e-01
2.090179594956056430e-01
2.143675964845242754e-01
2.143675964845242754e-01
2.143675964845242754e-01
2.082537256400458503e-01
2.082537256400458503e-01
2.067252579289262648e-01
2.067252579289262648e-01
2.067252579289262648e-01
2.109285441345051526e-01
2.109285441345051526e-01
2.216278181123423896e-01
2.216278181123423896e-01
2.216278181123423896e-01
2.166602980512036813e-01
2.166602980512036813e-01
2.136033626289644549e-01
2.136033626289644549e-01
2.136033626289644549e-01
2.162781811234237572e-01
2.162781811234237572e-01
2.143675964845242754e-01
2.143675964845242754e-01
2.143675964845242754e-01
2.174245319067634741e-01
2.174245319067634741e-01
2.151318303400840681e-01
2.151318303400840681e-01
2.151318303400840681e-01
2.063431410011463407e-01
2.063431410011463407e-01
2.105464272067252562e-01
2.105464272067252562e-01
2.105464272067252562e-01
2.105464272067252562e-01
2.105464272067252562e-01
2.155139472678639645e-01
2.155139472678639645e-01
2.155139472678639645e-01
2.128391287734046622e-01
2.128391287734046622e-01
2.128391287734046622e-01
2.128391287734046622e-01
2.128391287734046622e-01
2.029040886511272457e-01
2.029040886511272457e-01
2.128391287734046622e-01
2.128391287734046622e-01
2.128391287734046622e-01
2.090179594956056430e-01
2.090179594956056430e-01
2.055789071455865480e-01
2.055789071455865480e-01
2.055789071455865480e-01
2.136033626289644549e-01
2.136033626289644549e-01
2.124570118456247658e-01
2.124570118456247658e-01
2.124570118456247658e-01
2.136033626289644549e-01
2.136033626289644549e-01
2.113106610622850490e-01
2.113106610622850490e-01
2.113106610622850490e-01
2.105464272067252562e-01
2.105464272067252562e-01
2.044325563622468589e-01
2.044325563622468589e-01
2.044325563622468589e-01
2.147497134123041718e-01
2.147497134123041718e-01
2.101643102789453599e-01
2.101643102789453599e-01
2.101643102789453599e-01
2.097821933511654635e-01
2.097821933511654635e-01
2.147497134123041718e-01
2.147497134123041718e-01
2.147497134123041718e-01
2.158960641956438609e-01
2.158960641956438609e-01
2.116927779900649731e-01
2.116927779900649731e-01
2.116927779900649731e-01
2.155139472678639645e-01
2.155139472678639645e-01
2.094000764233855671e-01
2.094000764233855671e-01
2.094000764233855671e-01
2.128391287734046622e-01
2.128391287734046622e-01
2.051967902178066516e-01
2.051967902178066516e-01
2.051967902178066516e-01
2.101643102789453599e-01
2.101643102789453599e-01
2.074894917844860576e-01
2.074894917844860576e-01
2.074894917844860576e-01
2.162781811234237572e-01
2.162781811234237572e-01
2.166602980512036813e-01
2.166602980512036813e-01
2.166602980512036813e-01
2.074894917844860576e-01
2.074894917844860576e-01
2.181887657623232668e-01
2.181887657623232668e-01
2.181887657623232668e-01
2.082537256400458503e-01
2.082537256400458503e-01
2.086358425678257467e-01
2.086358425678257467e-01
2.086358425678257467e-01
2.170424149789835777e-01
2.170424149789835777e-01
2.113106610622850490e-01
2.113106610622850490e-01
2.113106610622850490e-01
2.006113870844478397e-01
2.006113870844478397e-01
2.158960641956438609e-01
2.158960641956438609e-01
2.158960641956438609e-01
2.055789071455865480e-01
2.055789071455865480e-01
2.074894917844860576e-01
2.074894917844860576e-01
2.074894917844860576e-01
2.097821933511654635e-01
2.097821933511654635e-01
2.051967902178066516e-01
2.051967902178066516e-01
2.051967902178066516e-01
2.055789071455865480e-01
2.055789071455865480e-01
2.025219717233473493e-01
2.025219717233473493e-01
2.025219717233473493e-01
2.021398547955674529e-01
2.021398547955674529e-01
2.067252579289262648e-01
2.067252579289262648e-01
2.067252579289262648e-01
2.090179594956056430e-01
2.090179594956056430e-01
2.120748949178448695e-01
2.120748949178448695e-01
2.120748949178448695e-01
2.071073748567061612e-01
2.071073748567061612e-01
2.051967902178066516e-01
2.051967902178066516e-01
2.051967902178066516e-01
2.067252579289262648e-01
2.067252579289262648e-01
2.055789071455865480e-01
2.055789071455865480e-01
2.055789071455865480e-01
2.048146732900267553e-01
2.048146732900267553e-01
2.009935040122277361e-01
2.009935040122277361e-01
2.009935040122277361e-01
2.051967902178066516e-01
2.051967902178066516e-01
2.109285441345051526e-01
2.109285441345051526e-01
2.017577378677875566e-01
2.017577378677875566e-01
2.017577378677875566e-01
2.143675964845242754e-01
2.143675964845242754e-01
2.082537256400458503e-01
2.082537256400458503e-01
2.082537256400458503e-01
2.036683225066870384e-01
2.036683225066870384e-01
2.051967902178066516e-01
2.051967902178066516e-01
2.051967902178066516e-01
2.097821933511654635e-01
2.097821933511654635e-01
2.017577378677875566e-01
2.017577378677875566e-01
2.017577378677875566e-01
2.036683225066870384e-01
2.036683225066870384e-01
2.120748949178448695e-01
2.120748949178448695e-01
2.120748949178448695e-01
2.048146732900267553e-01
2.048146732900267553e-01
2.151318303400840681e-01
2.151318303400840681e-01
2.151318303400840681e-01
2.036683225066870384e-01
2.036683225066870384e-01
2.147497134123041718e-01
2.147497134123041718e-01
2.147497134123041718e-01
2.132212457011845586e-01
2.132212457011845586e-01
2.124570118456247658e-01
2.124570118456247658e-01
2.124570118456247658e-01
2.086358425678257467e-01
2.086358425678257467e-01
2.181887657623232668e-01
2.181887657623232668e-01
2.181887657623232668e-01
2.055789071455865480e-01
2.055789071455865480e-01
2.082537256400458503e-01
2.082537256400458503e-01
2.082537256400458503e-01
2.136033626289644549e-01
2.136033626289644549e-01
2.097821933511654635e-01
2.097821933511654635e-01
2.097821933511654635e-01
2.071073748567061612e-01
2.071073748567061612e-01
2.124570118456247658e-01
2.124570118456247658e-01
2.124570118456247658e-01
2.036683225066870384e-01
2.036683225066870384e-01
2.105464272067252562e-01
2.105464272067252562e-01
2.105464272067252562e-01
2.051967902178066516e-01
2.051967902178066516e-01
2.036683225066870384e-01
2.036683225066870384e-01
2.036683225066870384e-01
2.132212457011845586e-01
2.132212457011845586e-01
2.143675964845242754e-01
2.143675964845242754e-01
2.143675964845242754e-01
2.055789071455865480e-01
2.055789071455865480e-01
2.170424149789835777e-01
2.170424149789835777e-01
2.170424149789835777e-01
2.074894917844860576e-01
2.074894917844860576e-01
2.151318303400840681e-01
2.151318303400840681e-01
2.151318303400840681e-01
2.086358425678257467e-01
2.086358425678257467e-01
2.067252579289262648e-01
2.067252579289262648e-01
2.067252579289262648e-01
2.025219717233473493e-01
2.025219717233473493e-01
1.998471532288880470e-01
1.998471532288880470e-01
1.998471532288880470e-01
2.139854795567443513e-01
2.139854795567443513e-01
2.113106610622850490e-01
2.113106610622850490e-01
2.113106610622850490e-01
2.128391287734046622e-01
2.128391287734046622e-01
2.094000764233855671e-01
2.094000764233855671e-01
2.094000764233855671e-01
2.071073748567061612e-01
2.071073748567061612e-01
2.086358425678257467e-01
2.086358425678257467e-01
2.086358425678257467e-01
2.067252579289262648e-01
2.067252579289262648e-01
2.094000764233855671e-01
2.094000764233855671e-01
2.094000764233855671e-01
2.124570118456247658e-01
2.124570118456247658e-01
2.051967902178066516e-01
2.051967902178066516e-01
2.051967902178066516e-01
2.162781811234237572e-01
2.162781811234237572e-01
2.032862055789071420e-01
2.032862055789071420e-01
2.032862055789071420e-01
2.139854795567443513e-01
2.139854795567443513e-01
2.078716087122659539e-01
2.078716087122659539e-01
2.078716087122659539e-01
2.105464272067252562e-01
2.105464272067252562e-01
2.082537256400458503e-01
2.082537256400458503e-01
2.082537256400458503e-01
2.090179594956056430e-01
2.090179594956056430e-01
2.101643102789453599e-01
2.101643102789453599e-01
2.101643102789453599e-01
2.227741688956820787e-01
2.227741688956820787e-01
2.090179594956056430e-01
2.090179594956056430e-01
2.090179594956056430e-01
2.239205196790217678e-01
2.239205196790217678e-01
2.296522735957202965e-01
2.296522735957202965e-01
2.296522735957202965e-01
2.158960641956438609e-01
2.158960641956438609e-01
2.235384027512418714e-01
2.235384027512418714e-01
2.235384027512418714e-01
2.262132212457011737e-01
2.262132212457011737e-01
2.281238058846006833e-01
2.281238058846006833e-01
2.281238058846006833e-01
2.246847535345815883e-01
2.246847535345815883e-01
2.265953381734810979e-01
2.265953381734810979e-01
2.265953381734810979e-01
2.353840275124187975e-01
2.353840275124187975e-01
2.399694306457776094e-01
2.399694306457776094e-01
2.399694306457776094e-01
2.418800152846771190e-01
2.418800152846771190e-01
2.441727168513565249e-01
2.441727168513565249e-01
2.441727168513565249e-01
2.487581199847153091e-01
2.487581199847153091e-01
2.495223538402751295e-01
2.495223538402751295e-01
2.495223538402751295e-01
2.483760030569354127e-01
2.483760030569354127e-01
2.510508215513947428e-01
2.510508215513947428e-01
2.510508215513947428e-01
2.586931601069927256e-01
2.586931601069927256e-01
2.609858616736721593e-01
2.609858616736721593e-01
2.609858616736721593e-01
2.632785632403515375e-01
2.632785632403515375e-01
2.667176155903706603e-01
2.667176155903706603e-01
2.667176155903706603e-01
2.774168895682078695e-01
2.774168895682078695e-01
2.709209017959495758e-01
2.709209017959495758e-01
2.709209017959495758e-01
2.800917080626671996e-01
2.800917080626671996e-01
2.812380588460068886e-01
2.812380588460068886e-01
2.766526557126480768e-01
2.766526557126480768e-01
2.766526557126480768e-01
2.804738249904470959e-01
2.804738249904470959e-01
2.770347726404279731e-01
2.770347726404279731e-01
2.770347726404279731e-01
2.873519296904852860e-01
2.873519296904852860e-01
2.823844096293465777e-01
2.823844096293465777e-01
2.823844096293465777e-01
2.842949942682460596e-01
2.842949942682460596e-01
2.865876958349254933e-01
2.865876958349254933e-01
2.865876958349254933e-01
2.842949942682460596e-01
2.842949942682460596e-01
2.873519296904852860e-01
2.873519296904852860e-01
2.873519296904852860e-01
2.858234619793657005e-01
2.858234619793657005e-01
2.823844096293465777e-01
2.823844096293465777e-01
2.823844096293465777e-01
2.881161635460450787e-01
2.881161635460450787e-01
2.877340466182651824e-01
2.877340466182651824e-01
2.877340466182651824e-01
2.942300343905234761e-01
2.942300343905234761e-01
2.873519296904852860e-01
2.873519296904852860e-01
2.873519296904852860e-01
2.854413450515858042e-01
2.854413450515858042e-01
2.881161635460450787e-01
2.881161635460450787e-01
2.881161635460450787e-01
2.877340466182651824e-01
2.877340466182651824e-01
2.877340466182651824e-01
2.877340466182651824e-01
2.877340466182651824e-01
2.930836836071837870e-01
2.930836836071837870e-01
2.835307604126862668e-01
2.835307604126862668e-01
2.835307604126862668e-01
2.854413450515858042e-01
2.854413450515858042e-01
2.846771111960260114e-01
2.846771111960260114e-01
2.846771111960260114e-01
2.915552158960642015e-01
2.915552158960642015e-01
2.820022927015666814e-01
2.820022927015666814e-01
2.820022927015666814e-01
2.865876958349254933e-01
2.865876958349254933e-01
2.850592281238059078e-01
2.850592281238059078e-01
2.850592281238059078e-01
2.911730989682843052e-01
2.911730989682843052e-01
2.927015666794038906e-01
2.927015666794038906e-01
2.927015666794038906e-01
2.816201757737867850e-01
2.816201757737867850e-01
2.854413450515858042e-01
2.854413450515858042e-01
2.854413450515858042e-01
2.888803974016048715e-01
2.888803974016048715e-01
2.793274742071073513e-01
2.793274742071073513e-01
2.793274742071073513e-01
2.758884218570882840e-01
2.758884218570882840e-01
2.709209017959495758e-01
2.709209017959495758e-01
2.709209017959495758e-01
2.816201757737867850e-01
2.816201757737867850e-01
2.777990064959877659e-01
2.777990064959877659e-01
2.777990064959877659e-01
2.789453572793274549e-01
2.789453572793274549e-01
2.770347726404279731e-01
2.770347726404279731e-01
2.770347726404279731e-01
2.735957202904088503e-01
2.735957202904088503e-01
2.716851356515093685e-01
2.716851356515093685e-01
2.716851356515093685e-01
2.751241880015284913e-01
2.751241880015284913e-01
2.735957202904088503e-01
2.735957202904088503e-01
2.735957202904088503e-01
2.827665265571264741e-01
2.827665265571264741e-01
2.739778372181887467e-01
2.739778372181887467e-01
2.739778372181887467e-01
2.697745510126098312e-01
2.697745510126098312e-01
2.720672525792892649e-01
2.720672525792892649e-01
2.720672525792892649e-01
2.812380588460068886e-01
2.812380588460068886e-01
2.724493695070691612e-01
2.724493695070691612e-01
2.724493695070691612e-01
2.735957202904088503e-01
2.735957202904088503e-01
2.774168895682078695e-01
2.774168895682078695e-01
2.774168895682078695e-01
2.701566679403897830e-01
2.701566679403897830e-01
2.690103171570500384e-01
2.690103171570500384e-01
2.690103171570500384e-01
2.693924340848299348e-01
2.693924340848299348e-01
2.693924340848299348e-01
2.693924340848299348e-01
2.693924340848299348e-01
2.705387848681696794e-01
2.705387848681696794e-01
2.693924340848299348e-01
2.693924340848299348e-01
2.693924340848299348e-01
2.640427970959113302e-01
2.640427970959113302e-01
2.651891478792510748e-01
2.651891478792510748e-01
2.651891478792510748e-01
2.602216278181123665e-01
2.602216278181123665e-01
2.659533817348108675e-01
2.659533817348108675e-01
2.659533817348108675e-01
2.667176155903706603e-01
2.667176155903706603e-01
2.686282002292701421e-01
2.686282002292701421e-01
2.686282002292701421e-01
2.636606801681314338e-01
2.636606801681314338e-01
2.609858616736721593e-01
2.609858616736721593e-01
2.609858616736721593e-01
2.628964463125716411e-01
2.628964463125716411e-01
2.663354986625907639e-01
2.663354986625907639e-01
2.663354986625907639e-01
2.678639663737103493e-01
2.678639663737103493e-01
2.697745510126098312e-01
2.697745510126098312e-01
2.697745510126098312e-01
2.583110431792128292e-01
2.583110431792128292e-01
2.602216278181123665e-01
2.602216278181123665e-01
2.602216278181123665e-01
2.586931601069927256e-01
2.586931601069927256e-01
2.552541077569736583e-01
2.552541077569736583e-01
2.552541077569736583e-01
2.640427970959113302e-01
2.640427970959113302e-01
2.533435231180741209e-01
2.533435231180741209e-01
2.533435231180741209e-01
2.537256400458540173e-01
2.537256400458540173e-01
2.594573939625525183e-01
2.594573939625525183e-01
2.594573939625525183e-01
2.598395108903324147e-01
2.598395108903324147e-01
2.621322124570118484e-01
2.621322124570118484e-01
2.621322124570118484e-01
2.541077569736339137e-01
2.541077569736339137e-01
2.552541077569736583e-01
2.552541077569736583e-01
2.552541077569736583e-01
2.510508215513947428e-01
2.510508215513947428e-01
2.464654184180359309e-01
2.464654184180359309e-01
2.502865876958349500e-01
2.502865876958349500e-01
2.502865876958349500e-01
2.571646923958731401e-01
2.571646923958731401e-01
2.544898739014138100e-01
2.544898739014138100e-01
2.544898739014138100e-01
2.426442491402369117e-01
2.426442491402369117e-01
2.418800152846771190e-01
2.418800152846771190e-01
2.418800152846771190e-01
2.495223538402751295e-01
2.495223538402751295e-01
2.460833014902560067e-01
2.460833014902560067e-01
2.460833014902560067e-01
2.476117692013756200e-01
2.476117692013756200e-01
2.430263660680168081e-01
2.430263660680168081e-01
2.430263660680168081e-01
2.430263660680168081e-01
2.430263660680168081e-01
2.369124952235384107e-01
2.369124952235384107e-01
2.369124952235384107e-01
2.342376767290791084e-01
2.342376767290791084e-01
2.414978983568972226e-01
2.414978983568972226e-01
2.414978983568972226e-01
2.353840275124187975e-01
2.353840275124187975e-01
2.365303782957585144e-01
2.365303782957585144e-01
2.365303782957585144e-01
2.338555598012991843e-01
2.338555598012991843e-01
2.376767290790982035e-01
2.376767290790982035e-01
2.376767290790982035e-01
2.414978983568972226e-01
2.414978983568972226e-01
2.350019105846389011e-01
2.350019105846389011e-01
2.350019105846389011e-01
2.357661444401986939e-01
2.357661444401986939e-01
2.361482613679785902e-01
2.361482613679785902e-01
2.361482613679785902e-01
2.380588460068780998e-01
2.380588460068780998e-01
2.357661444401986939e-01
2.357661444401986939e-01
2.357661444401986939e-01
2.411157814291172985e-01
2.411157814291172985e-01
2.369124952235384107e-01
2.369124952235384107e-01
2.369124952235384107e-01
2.350019105846389011e-01
2.350019105846389011e-01
2.311807413068398820e-01
2.311807413068398820e-01
2.311807413068398820e-01
2.296522735957202965e-01
2.296522735957202965e-01
2.361482613679785902e-01
2.361482613679785902e-01
2.361482613679785902e-01
2.403515475735575058e-01
2.403515475735575058e-01
2.403515475735575058e-01
2.403515475735575058e-01
2.403515475735575058e-01
2.361482613679785902e-01
2.361482613679785902e-01
2.365303782957585144e-01
2.365303782957585144e-01
2.365303782957585144e-01
2.407336645013374021e-01
2.407336645013374021e-01
2.357661444401986939e-01
2.357661444401986939e-01
2.357661444401986939e-01
2.399694306457776094e-01
2.399694306457776094e-01
2.300343905235001929e-01
2.300343905235001929e-01
2.300343905235001929e-01
2.258311043179212774e-01
2.258311043179212774e-01
2.365303782957585144e-01
2.365303782957585144e-01
2.365303782957585144e-01
2.342376767290791084e-01
2.342376767290791084e-01
2.334734428735192879e-01
2.334734428735192879e-01
2.334734428735192879e-01
2.369124952235384107e-01
2.369124952235384107e-01
2.376767290790982035e-01
2.376767290790982035e-01
2.376767290790982035e-01
2.285059228123805797e-01
2.285059228123805797e-01
2.334734428735192879e-01
2.334734428735192879e-01
2.334734428735192879e-01
2.357661444401986939e-01
2.357661444401986939e-01
2.311807413068398820e-01
2.311807413068398820e-01
2.311807413068398820e-01
2.258311043179212774e-01
2.258311043179212774e-01
2.376767290790982035e-01
2.376767290790982035e-01
2.376767290790982035e-01
2.361482613679785902e-01
2.361482613679785902e-01
2.357661444401986939e-01
2.357661444401986939e-01
2.357661444401986939e-01
2.315628582346198061e-01
2.315628582346198061e-01
2.300343905235001929e-01
2.300343905235001929e-01
2.300343905235001929e-01
2.307986243790599856e-01
2.307986243790599856e-01
2.258311043179212774e-01
2.258311043179212774e-01
2.258311043179212774e-01
2.281238058846006833e-01
2.281238058846006833e-01
2.288880397401604760e-01
2.288880397401604760e-01
2.288880397401604760e-01
2.300343905235001929e-01
2.300343905235001929e-01
2.246847535345815883e-01
2.246847535345815883e-01
2.246847535345815883e-01
2.346197936568590048e-01
2.346197936568590048e-01
2.323270920901795988e-01
2.323270920901795988e-01
2.323270920901795988e-01
2.300343905235001929e-01
2.300343905235001929e-01
2.311807413068398820e-01
2.311807413068398820e-01
2.311807413068398820e-01
2.365303782957585144e-01
2.365303782957585144e-01
2.323270920901795988e-01
2.323270920901795988e-01
2.323270920901795988e-01
2.304165074512800893e-01
2.304165074512800893e-01
2.323270920901795988e-01
2.323270920901795988e-01
2.323270920901795988e-01
2.296522735957202965e-01
2.296522735957202965e-01
2.307986243790599856e-01
2.307986243790599856e-01
2.307986243790599856e-01
2.411157814291172985e-01
2.411157814291172985e-01
2.327092090179594952e-01
2.327092090179594952e-01
2.327092090179594952e-01
2.380588460068780998e-01
2.380588460068780998e-01
2.296522735957202965e-01
2.296522735957202965e-01
2.296522735957202965e-01
2.296522735957202965e-01
2.296522735957202965e-01
2.243026366068016919e-01
2.243026366068016919e-01
2.243026366068016919e-01
2.300343905235001929e-01
2.300343905235001929e-01
2.327092090179594952e-01
2.327092090179594952e-01
2.327092090179594952e-01
2.235384027512418714e-01
2.235384027512418714e-01
2.311807413068398820e-01
2.311807413068398820e-01
2.311807413068398820e-01
2.208635842567825691e-01
2.208635842567825691e-01
2.254489873901413810e-01
2.254489873901413810e-01
2.246847535345815883e-01
2.246847535345815883e-01
2.246847535345815883e-01
2.277416889568207869e-01
2.277416889568207869e-01
2.239205196790217678e-01
2.239205196790217678e-01
2.239205196790217678e-01
2.277416889568207869e-01
2.277416889568207869e-01
2.223920519679021823e-01
2.223920519679021823e-01
2.223920519679021823e-01
2.265953381734810979e-01
2.265953381734810979e-01
2.204814673290026728e-01
2.204814673290026728e-01
2.204814673290026728e-01
2.223920519679021823e-01
2.223920519679021823e-01
2.170424149789835777e-01
2.170424149789835777e-01
2.170424149789835777e-01
2.243026366068016919e-01
2.243026366068016919e-01
2.193351165456629837e-01
2.193351165456629837e-01
2.193351165456629837e-01
2.265953381734810979e-01
2.265953381734810979e-01
2.254489873901413810e-01
2.254489873901413810e-01
2.254489873901413810e-01
2.258311043179212774e-01
2.258311043179212774e-01
2.227741688956820787e-01
2.227741688956820787e-01
2.227741688956820787e-01
2.239205196790217678e-01
2.239205196790217678e-01
2.212457011845624655e-01
2.212457011845624655e-01
2.212457011845624655e-01
2.189529996178830595e-01
2.189529996178830595e-01
2.220099350401222860e-01
2.220099350401222860e-01
2.220099350401222860e-01
2.239205196790217678e-01
2.239205196790217678e-01
2.208635842567825691e-01
2.208635842567825691e-01
2.208635842567825691e-01
2.147497134123041718e-01
2.147497134123041718e-01
2.181887657623232668e-01
2.181887657623232668e-01
2.181887657623232668e-01
2.162781811234237572e-01
2.162781811234237572e-01
2.204814673290026728e-01
2.204814673290026728e-01
2.204814673290026728e-01
2.220099350401222860e-01
2.220099350401222860e-01
2.243026366068016919e-01
2.243026366068016919e-01
2.243026366068016919e-01
2.178066488345433704e-01
2.178066488345433704e-01
2.128391287734046622e-01
2.128391287734046622e-01
2.128391287734046622e-01
2.178066488345433704e-01
2.178066488345433704e-01
2.128391287734046622e-01
2.128391287734046622e-01
2.128391287734046622e-01
2.200993504012227764e-01
2.200993504012227764e-01
2.185708826901031632e-01
2.185708826901031632e-01
2.185708826901031632e-01
2.208635842567825691e-01
2.208635842567825691e-01
2.166602980512036813e-01
2.166602980512036813e-01
2.166602980512036813e-01
2.200993504012227764e-01
2.200993504012227764e-01
2.155139472678639645e-01
2.155139472678639645e-01
2.155139472678639645e-01
2.223920519679021823e-01
2.223920519679021823e-01
2.212457011845624655e-01
2.212457011845624655e-01
2.212457011845624655e-01
2.128391287734046622e-01
2.128391287734046622e-01
2.174245319067634741e-01
2.174245319067634741e-01
2.174245319067634741e-01
2.227741688956820787e-01
2.227741688956820787e-01
2.113106610622850490e-01
2.113106610622850490e-01
2.113106610622850490e-01
2.178066488345433704e-01
2.178066488345433704e-01
2.227741688956820787e-01
2.227741688956820787e-01
2.227741688956820787e-01
2.136033626289644549e-01
2.136033626289644549e-01
2.147497134123041718e-01
2.147497134123041718e-01
2.147497134123041718e-01
2.136033626289644549e-01
2.136033626289644549e-01
2.212457011845624655e-01
2.212457011845624655e-01
2.212457011845624655e-01
2.090179594956056430e-01
2.090179594956056430e-01
2.074894917844860576e-01
2.074894917844860576e-01
2.074894917844860576e-01
2.139854795567443513e-01
2.139854795567443513e-01
2.223920519679021823e-01
2.223920519679021823e-01
2.223920519679021823e-01
2.128391287734046622e-01
2.128391287734046622e-01
2.113106610622850490e-01
2.113106610622850490e-01
2.113106610622850490e-01
2.189529996178830595e-01
2.189529996178830595e-01
2.193351165456629837e-01
2.193351165456629837e-01
2.193351165456629837e-01
2.139854795567443513e-01
2.139854795567443513e-01
2.086358425678257467e-01
2.086358425678257467e-01
2.086358425678257467e-01
2.124570118456247658e-01
2.124570118456247658e-01
2.097821933511654635e-01
2.097821933511654635e-01
2.097821933511654635e-01
2.086358425678257467e-01
2.086358425678257467e-01
2.189529996178830595e-01
2.189529996178830595e-01
2.189529996178830595e-01
2.097821933511654635e-01
2.097821933511654635e-01
2.124570118456247658e-01
2.124570118456247658e-01
2.124570118456247658e-01
2.158960641956438609e-01
2.158960641956438609e-01
2.113106610622850490e-01
2.113106610622850490e-01
2.113106610622850490e-01
2.097821933511654635e-01
2.097821933511654635e-01
2.162781811234237572e-01
2.162781811234237572e-01
2.162781811234237572e-01
2.143675964845242754e-01
2.143675964845242754e-01
2.109285441345051526e-01
2.109285441345051526e-01
2.109285441345051526e-01
2.139854795567443513e-01
2.139854795567443513e-01
2.124570118456247658e-01
2.124570118456247658e-01
2.124570118456247658e-01
2.220099350401222860e-01
2.220099350401222860e-01
2.101643102789453599e-01
2.101643102789453599e-01
2.101643102789453599e-01
1.998471532288880470e-01
1.998471532288880470e-01
2.090179594956056430e-01
2.090179594956056430e-01
2.090179594956056430e-01
2.109285441345051526e-01
2.109285441345051526e-01
2.074894917844860576e-01
2.074894917844860576e-01
2.074894917844860576e-01
2.044325563622468589e-01
2.044325563622468589e-01
2.109285441345051526e-01
2.109285441345051526e-01
2.109285441345051526e-01
2.059610240733664444e-01
2.059610240733664444e-01
2.109285441345051526e-01
2.109285441345051526e-01
2.113106610622850490e-01
2.113106610622850490e-01
2.113106610622850490e-01
2.132212457011845586e-01
2.132212457011845586e-01
2.193351165456629837e-01
2.193351165456629837e-01
2.193351165456629837e-01
2.120748949178448695e-01
2.120748949178448695e-01
2.097821933511654635e-01
2.097821933511654635e-01
2.097821933511654635e-01
2.029040886511272457e-01
2.029040886511272457e-01
2.143675964845242754e-01
2.143675964845242754e-01
2.143675964845242754e-01
2.158960641956438609e-01
2.158960641956438609e-01
2.101643102789453599e-01
2.101643102789453599e-01
2.101643102789453599e-01
2.116927779900649731e-01
2.116927779900649731e-01
2.113106610622850490e-01
2.113106610622850490e-01
2.113106610622850490e-01
2.082537256400458503e-01
2.082537256400458503e-01
2.109285441345051526e-01
2.109285441345051526e-01
2.109285441345051526e-01
2.124570118456247658e-01
2.124570118456247658e-01
2.185708826901031632e-01
2.185708826901031632e-01
2.185708826901031632e-01
2.048146732900267553e-01
2.048146732900267553e-01
2.120748949178448695e-01
2.120748949178448695e-01
2.120748949178448695e-01
2.074894917844860576e-01
2.074894917844860576e-01
2.059610240733664444e-01
2.059610240733664444e-01
2.059610240733664444e-01
2.113106610622850490e-01
2.113106610622850490e-01
2.086358425678257467e-01
2.086358425678257467e-01
2.086358425678257467e-01
2.032862055789071420e-01
2.032862055789071420e-01
2.048146732900267553e-01
2.048146732900267553e-01
2.048146732900267553e-01
2.097821933511654635e-01
2.097821933511654635e-01
2.151318303400840681e-01
2.151318303400840681e-01
2.151318303400840681e-01
2.189529996178830595e-01
2.189529996178830595e-01
2.048146732900267553e-01
2.048146732900267553e-01
2.048146732900267553e-01
2.120748949178448695e-01
2.120748949178448695e-01
2.132212457011845586e-01
2.132212457011845586e-01
2.132212457011845586e-01
2.036683225066870384e-01
2.036683225066870384e-01
2.036683225066870384e-01
2.036683225066870384e-01
2.036683225066870384e-01
2.059610240733664444e-01
2.059610240733664444e-01
2.136033626289644549e-01
2.136033626289644549e-01
2.136033626289644549e-01
2.193351165456629837e-01
2.193351165456629837e-01
2.078716087122659539e-01
2.078716087122659539e-01
2.078716087122659539e-01
2.059610240733664444e-01
2.059610240733664444e-01
2.155139472678639645e-01
2.155139472678639645e-01
2.155139472678639645e-01
2.101643102789453599e-01
2.101643102789453599e-01
2.132212457011845586e-01
2.132212457011845586e-01
2.132212457011845586e-01
2.021398547955674529e-01
2.021398547955674529e-01
2.143675964845242754e-01
2.143675964845242754e-01
2.143675964845242754e-01
2.178066488345433704e-01
2.178066488345433704e-01
2.116927779900649731e-01
2.116927779900649731e-01
2.116927779900649731e-01
2.067252579289262648e-01
2.067252579289262648e-01
2.204814673290026728e-01
2.204814673290026728e-01
2.204814673290026728e-01
2.074894917844860576e-01
2.074894917844860576e-01
2.113106610622850490e-01
2.113106610622850490e-01
2.113106610622850490e-01
2.105464272067252562e-01
2.105464272067252562e-01
2.170424149789835777e-01
2.170424149789835777e-01
2.170424149789835777e-01
2.067252579289262648e-01
2.067252579289262648e-01
2.101643102789453599e-01
2.101643102789453599e-01
2.101643102789453599e-01
2.082537256400458503e-01
2.082537256400458503e-01
2.204814673290026728e-01
2.204814673290026728e-01
2.204814673290026728e-01
2.143675964845242754e-01
2.143675964845242754e-01
2.097821933511654635e-01
2.097821933511654635e-01
2.097821933511654635e-01
2.082537256400458503e-01
2.082537256400458503e-01
2.067252579289262648e-01
2.067252579289262648e-01
2.067252579289262648e-01
2.227741688956820787e-01
2.227741688956820787e-01
2.128391287734046622e-01
2.128391287734046622e-01
2.128391287734046622e-01
2.193351165456629837e-01
2.193351165456629837e-01
2.220099350401222860e-01
2.220099350401222860e-01
2.220099350401222860e-01
2.120748949178448695e-01
2.120748949178448695e-01
2.082537256400458503e-01
2.082537256400458503e-01
2.082537256400458503e-01
2.040504394344669348e-01
2.040504394344669348e-01
2.044325563622468589e-01
2.044325563622468589e-01
2.044325563622468589e-01
2.162781811234237572e-01
2.162781811234237572e-01
2.155139472678639645e-01
2.155139472678639645e-01
2.155139472678639645e-01
2.071073748567061612e-01
2.071073748567061612e-01
2.174245319067634741e-01
2.174245319067634741e-01
2.174245319067634741e-01
2.059610240733664444e-01
2.059610240733664444e-01
2.216278181123423896e-01
2.216278181123423896e-01
2.216278181123423896e-01
2.120748949178448695e-01
2.120748949178448695e-01
2.170424149789835777e-01
2.170424149789835777e-01
2.170424149789835777e-01
2.128391287734046622e-01
2.128391287734046622e-01
2.212457011845624655e-01
2.212457011845624655e-01
2.212457011845624655e-01
2.174245319067634741e-01
2.174245319067634741e-01
2.216278181123423896e-01
2.216278181123423896e-01
2.216278181123423896e-01
2.158960641956438609e-01
2.158960641956438609e-01
2.155139472678639645e-01
2.155139472678639645e-01
2.155139472678639645e-01
2.204814673290026728e-01
2.204814673290026728e-01
2.243026366068016919e-01
2.243026366068016919e-01
2.250668704623614846e-01
2.250668704623614846e-01
2.250668704623614846e-01
2.262132212457011737e-01
2.262132212457011737e-01
2.399694306457776094e-01
2.399694306457776094e-01
