4.940771876194115508e-01
4.940771876194115508e-01
4.860527321360336162e-01
4.860527321360336162e-01
4.860527321360336162e-01
4.791746274359954261e-01
4.791746274359954261e-01
4.894917844860527389e-01
4.894917844860527389e-01
4.894917844860527389e-01
4.742071073748567178e-01
4.742071073748567178e-01
4.799388612915552188e-01
4.799388612915552188e-01
4.799388612915552188e-01
4.749713412304165105e-01
4.749713412304165105e-01
4.722965227359571805e-01
4.722965227359571805e-01
4.722965227359571805e-01
4.642720672525793013e-01
4.642720672525793013e-01
4.669468857470385759e-01
4.669468857470385759e-01
4.669468857470385759e-01
4.623614826136797640e-01
4.623614826136797640e-01
4.608330149025601785e-01
4.608330149025601785e-01
4.608330149025601785e-01
4.650363011081390940e-01
4.650363011081390940e-01
4.589224302636606967e-01
4.589224302636606967e-01
4.589224302636606967e-01
4.551012609858616775e-01
4.551012609858616775e-01
4.478410393580435356e-01
4.478410393580435356e-01
4.478410393580435356e-01
4.543370271303018848e-01
4.543370271303018848e-01
4.444019870080244683e-01
4.444019870080244683e-01
4.444019870080244683e-01
4.424914023691249310e-01
4.424914023691249310e-01
4.413450515857852419e-01
4.413450515857852419e-01
4.413450515857852419e-01
4.333205961024073627e-01
4.333205961024073627e-01
4.394344669468857600e-01
4.394344669468857600e-01
4.394344669468857600e-01
4.375238823079862227e-01
4.375238823079862227e-01
4.310278945357279290e-01
4.310278945357279290e-01
4.310278945357279290e-01
4.272067252579289098e-01
4.272067252579289098e-01
4.237676729079098426e-01
4.237676729079098426e-01
4.237676729079098426e-01
4.203286205578907198e-01
4.203286205578907198e-01
4.249140236912495316e-01
4.249140236912495316e-01
4.249140236912495316e-01
4.233855559801299462e-01
4.233855559801299462e-01
4.249140236912495316e-01
4.249140236912495316e-01
4.249140236912495316e-01
4.069545280855941805e-01
4.069545280855941805e-01
4.103935804356133032e-01
4.103935804356133032e-01
4.103935804356133032e-01
4.123041650745127851e-01
4.123041650745127851e-01
4.023691249522353686e-01
4.023691249522353686e-01
4.023691249522353686e-01
4.008406572411157831e-01
4.008406572411157831e-01
4.100114635078334069e-01
4.100114635078334069e-01
4.100114635078334069e-01
4.035154757355751132e-01
4.035154757355751132e-01
4.077187619411539732e-01
4.077187619411539732e-01
4.077187619411539732e-01
3.993121895299961976e-01
3.993121895299961976e-01
3.985479556744364049e-01
3.985479556744364049e-01
3.985479556744364049e-01
3.954910202521971785e-01
3.954910202521971785e-01
3.905235001910584702e-01
3.905235001910584702e-01
3.905235001910584702e-01
3.935804356132976967e-01
3.935804356132976967e-01
3.962552541077569712e-01
3.962552541077569712e-01
3.962552541077569712e-01
3.870844478410393474e-01
3.870844478410393474e-01
3.863202139854795547e-01
3.863202139854795547e-01
3.863202139854795547e-01
3.886129155521589329e-01
3.886129155521589329e-01
3.882307986243790365e-01
3.882307986243790365e-01
3.882307986243790365e-01
3.756209400076423455e-01
3.756209400076423455e-01
3.840275124188001765e-01
3.840275124188001765e-01
3.840275124188001765e-01
3.717997707298433263e-01
3.717997707298433263e-01
3.859380970576996583e-01
3.859380970576996583e-01
3.859380970576996583e-01
3.786778754298815164e-01
3.786778754298815164e-01
3.760030569354222418e-01
3.760030569354222418e-01
3.760030569354222418e-01
3.824990447076805355e-01
3.824990447076805355e-01
3.710355368742835336e-01
3.710355368742835336e-01
3.710355368742835336e-01
3.748567061520825527e-01
3.748567061520825527e-01
3.649216660298051362e-01
3.649216660298051362e-01
3.649216660298051362e-01
3.595720290408865316e-01
3.595720290408865316e-01
3.683607183798242035e-01
3.683607183798242035e-01
3.683607183798242035e-01
3.630110813909055989e-01
3.630110813909055989e-01
3.637753152464653916e-01
3.637753152464653916e-01
3.637753152464653916e-01
3.614826136797860134e-01
3.614826136797860134e-01
3.672143675964845144e-01
3.672143675964845144e-01
3.549866259075277197e-01
3.549866259075277197e-01
3.549866259075277197e-01
3.576614444019869943e-01
3.576614444019869943e-01
3.561329766908674088e-01
3.561329766908674088e-01
3.561329766908674088e-01
3.580435613297668906e-01
3.580435613297668906e-01
3.454337027130301996e-01
3.454337027130301996e-01
3.454337027130301996e-01
3.546045089797478234e-01
3.546045089797478234e-01
3.530760412686281824e-01
3.530760412686281824e-01
3.530760412686281824e-01
3.477264042797095778e-01
3.477264042797095778e-01
3.400840657241115950e-01
3.400840657241115950e-01
3.400840657241115950e-01
3.442873519296905105e-01
3.442873519296905105e-01
3.496369889186091151e-01
3.496369889186091151e-01
3.496369889186091151e-01
3.419946503630110768e-01
3.419946503630110768e-01
3.454337027130301996e-01
3.454337027130301996e-01
3.454337027130301996e-01
3.408482995796713877e-01
3.408482995796713877e-01
3.439052350019105586e-01
3.439052350019105586e-01
3.439052350019105586e-01
3.511654566297287006e-01
3.511654566297287006e-01
3.358807795185326794e-01
3.358807795185326794e-01
3.358807795185326794e-01
3.461979365685899923e-01
3.461979365685899923e-01
3.408482995796713877e-01
3.408482995796713877e-01
3.408482995796713877e-01
3.362628964463125758e-01
3.362628964463125758e-01
3.370271303018723685e-01
3.370271303018723685e-01
3.370271303018723685e-01
3.282384409629346411e-01
3.282384409629346411e-01
3.274742071073748484e-01
3.274742071073748484e-01
3.274742071073748484e-01
3.362628964463125758e-01
3.362628964463125758e-01
3.217424531906763474e-01
3.217424531906763474e-01
3.217424531906763474e-01
3.240351547573557256e-01
3.240351547573557256e-01
3.335880779518532457e-01
3.335880779518532457e-01
3.335880779518532457e-01
3.301490256018341785e-01
3.301490256018341785e-01
3.374092472296522649e-01
3.374092472296522649e-01
3.374092472296522649e-01
3.259457393962552629e-01
3.259457393962552629e-01
3.240351547573557256e-01
3.240351547573557256e-01
3.240351547573557256e-01
3.339701948796331421e-01
3.339701948796331421e-01
3.301490256018341785e-01
3.301490256018341785e-01
3.301490256018341785e-01
3.186855177684371210e-01
3.186855177684371210e-01
3.263278563240351593e-01
3.263278563240351593e-01
3.263278563240351593e-01
3.244172716851356775e-01
3.244172716851356775e-01
3.267099732518150557e-01
3.267099732518150557e-01
3.267099732518150557e-01
3.225066870462361401e-01
3.225066870462361401e-01
3.213603362628964510e-01
3.213603362628964510e-01
3.213603362628964510e-01
3.144822315628582610e-01
3.144822315628582610e-01
3.125716469239587236e-01
3.125716469239587236e-01
3.125716469239587236e-01
3.110431792128391382e-01
3.110431792128391382e-01
3.190676346962170173e-01
3.190676346962170173e-01
3.190676346962170173e-01
3.202139854795567619e-01
3.202139854795567619e-01
3.225066870462361401e-01
3.225066870462361401e-01
3.225066870462361401e-01
3.102789453572793454e-01
3.102789453572793454e-01
3.095147115017195527e-01
3.095147115017195527e-01
3.095147115017195527e-01
3.133358807795185164e-01
3.133358807795185164e-01
3.114252961406190345e-01
3.114252961406190345e-01
3.114252961406190345e-01
3.179212839128773282e-01
3.179212839128773282e-01
3.133358807795185164e-01
3.133358807795185164e-01
3.133358807795185164e-01
3.098968284294994491e-01
3.098968284294994491e-01
3.118074130683989309e-01
3.118074130683989309e-01
3.118074130683989309e-01
3.148643484906381573e-01
3.148643484906381573e-01
3.041650745128008926e-01
3.041650745128008926e-01
3.041650745128008926e-01
3.160106992739778464e-01
3.160106992739778464e-01
3.133358807795185164e-01
3.133358807795185164e-01
3.133358807795185164e-01
3.045471914405808445e-01
3.045471914405808445e-01
3.106610622850592418e-01
3.106610622850592418e-01
3.106610622850592418e-01
2.999617883072220326e-01
2.999617883072220326e-01
3.125716469239587236e-01
3.125716469239587236e-01
3.125716469239587236e-01
3.102789453572793454e-01
3.102789453572793454e-01
3.202139854795567619e-01
3.202139854795567619e-01
3.202139854795567619e-01
3.072220099350401190e-01
3.072220099350401190e-01
3.034008406572410999e-01
3.034008406572410999e-01
3.034008406572410999e-01
3.018723729461215144e-01
3.018723729461215144e-01
3.045471914405808445e-01
3.045471914405808445e-01
3.045471914405808445e-01
3.079862437905999117e-01
3.079862437905999117e-01
3.011081390905617217e-01
3.011081390905617217e-01
3.011081390905617217e-01
3.037829575850209962e-01
3.037829575850209962e-01
3.034008406572410999e-01
3.034008406572410999e-01
3.034008406572410999e-01
3.026366068016813071e-01
3.026366068016813071e-01
3.014902560183416180e-01
3.014902560183416180e-01
3.014902560183416180e-01
2.953763851738632207e-01
2.953763851738632207e-01
2.984333205961023916e-01
2.984333205961023916e-01
2.984333205961023916e-01
2.991975544516621843e-01
2.991975544516621843e-01
2.923194497516239942e-01
2.923194497516239942e-01
2.923194497516239942e-01
3.053114252961406372e-01
3.053114252961406372e-01
2.961406190294230134e-01
2.961406190294230134e-01
2.961406190294230134e-01
2.991975544516621843e-01
2.991975544516621843e-01
3.064577760794803263e-01
3.064577760794803263e-01
2.953763851738632207e-01
2.953763851738632207e-01
2.953763851738632207e-01
2.953763851738632207e-01
2.953763851738632207e-01
2.965227359572029098e-01
2.965227359572029098e-01
2.965227359572029098e-01
2.930836836071837870e-01
2.930836836071837870e-01
2.965227359572029098e-01
2.965227359572029098e-01
2.965227359572029098e-01
2.995796713794421362e-01
2.995796713794421362e-01
2.911730989682843052e-01
2.911730989682843052e-01
2.911730989682843052e-01
2.946121513183034279e-01
2.946121513183034279e-01
2.957585021016431170e-01
2.957585021016431170e-01
2.957585021016431170e-01
2.904088651127245124e-01
2.904088651127245124e-01
2.949942682460833243e-01
2.949942682460833243e-01
2.949942682460833243e-01
2.888803974016048715e-01
2.888803974016048715e-01
2.927015666794038906e-01
2.927015666794038906e-01
2.927015666794038906e-01
2.934658005349636833e-01
2.934658005349636833e-01
2.842949942682460596e-01
2.842949942682460596e-01
2.842949942682460596e-01
2.884982804738249751e-01
2.884982804738249751e-01
2.904088651127245124e-01
2.904088651127245124e-01
2.904088651127245124e-01
2.957585021016431170e-01
2.957585021016431170e-01
2.915552158960642015e-01
2.915552158960642015e-01
2.915552158960642015e-01
2.865876958349254933e-01
2.865876958349254933e-01
2.881161635460450787e-01
2.881161635460450787e-01
2.881161635460450787e-01
2.881161635460450787e-01
2.881161635460450787e-01
3.034008406572410999e-01
3.034008406572410999e-01
3.034008406572410999e-01
2.854413450515858042e-01
2.854413450515858042e-01
2.881161635460450787e-01
2.881161635460450787e-01
2.881161635460450787e-01
2.934658005349636833e-01
2.934658005349636833e-01
2.884982804738249751e-01
2.884982804738249751e-01
2.884982804738249751e-01
2.946121513183034279e-01
2.946121513183034279e-01
2.892625143293847678e-01
2.892625143293847678e-01
2.892625143293847678e-01
2.984333205961023916e-01
2.984333205961023916e-01
2.930836836071837870e-01
2.930836836071837870e-01
2.930836836071837870e-01
3.018723729461215144e-01
3.018723729461215144e-01
3.026366068016813071e-01
3.026366068016813071e-01
3.026366068016813071e-01
2.911730989682843052e-01
2.911730989682843052e-01
3.022544898739014108e-01
3.022544898739014108e-01
3.022544898739014108e-01
3.060756591517004299e-01
3.060756591517004299e-01
3.095147115017195527e-01
3.095147115017195527e-01
3.095147115017195527e-01
3.068398930072602226e-01
3.068398930072602226e-01
3.179212839128773282e-01
3.179212839128773282e-01
3.179212839128773282e-01
3.072220099350401190e-01
3.072220099350401190e-01
2.999617883072220326e-01
2.999617883072220326e-01
2.999617883072220326e-01
3.163928162017577428e-01
3.163928162017577428e-01
3.175391669850974319e-01
3.175391669850974319e-01
3.175391669850974319e-01
3.152464654184180537e-01
3.152464654184180537e-01
3.118074130683989309e-01
3.118074130683989309e-01
3.118074130683989309e-01
3.148643484906381573e-01
3.148643484906381573e-01
3.102789453572793454e-01
3.102789453572793454e-01
3.102789453572793454e-01
3.137179977072984127e-01
3.137179977072984127e-01
3.179212839128773282e-01
3.179212839128773282e-01
3.179212839128773282e-01
3.213603362628964510e-01
3.213603362628964510e-01
3.240351547573557256e-01
3.240351547573557256e-01
3.240351547573557256e-01
3.232709209017959329e-01
3.232709209017959329e-01
3.213603362628964510e-01
3.213603362628964510e-01
3.213603362628964510e-01
3.297669086740542821e-01
3.297669086740542821e-01
3.228888039740160365e-01
3.228888039740160365e-01
3.228888039740160365e-01
3.320596102407336603e-01
3.320596102407336603e-01
3.205961024073366583e-01
3.205961024073366583e-01
3.205961024073366583e-01
3.293847917462743857e-01
3.293847917462743857e-01
3.297669086740542821e-01
3.297669086740542821e-01
3.297669086740542821e-01
3.190676346962170173e-01
3.190676346962170173e-01
3.247993886129155738e-01
3.247993886129155738e-01
3.247993886129155738e-01
3.209782193351165547e-01
3.209782193351165547e-01
3.163928162017577428e-01
3.163928162017577428e-01
3.163928162017577428e-01
3.263278563240351593e-01
3.263278563240351593e-01
3.267099732518150557e-01
3.267099732518150557e-01
3.267099732518150557e-01
3.251815055406954702e-01
3.251815055406954702e-01
3.209782193351165547e-01
3.209782193351165547e-01
3.209782193351165547e-01
3.198318685517768656e-01
3.198318685517768656e-01
3.293847917462743857e-01
3.293847917462743857e-01
3.293847917462743857e-01
3.217424531906763474e-01
3.217424531906763474e-01
3.183034008406572246e-01
3.183034008406572246e-01
3.183034008406572246e-01
3.217424531906763474e-01
3.217424531906763474e-01
3.209782193351165547e-01
3.209782193351165547e-01
3.209782193351165547e-01
3.259457393962552629e-01
3.259457393962552629e-01
3.213603362628964510e-01
3.213603362628964510e-01
3.213603362628964510e-01
3.160106992739778464e-01
3.160106992739778464e-01
3.221245701184562438e-01
3.221245701184562438e-01
3.221245701184562438e-01
3.152464654184180537e-01
3.152464654184180537e-01
3.198318685517768656e-01
3.198318685517768656e-01
3.198318685517768656e-01
3.270920901795949520e-01
3.270920901795949520e-01
3.186855177684371210e-01
3.186855177684371210e-01
3.148643484906381573e-01
3.148643484906381573e-01
3.148643484906381573e-01
3.167749331295376392e-01
3.167749331295376392e-01
3.141001146350783091e-01
3.141001146350783091e-01
3.141001146350783091e-01
3.137179977072984127e-01
3.137179977072984127e-01
3.240351547573557256e-01
3.240351547573557256e-01
3.240351547573557256e-01
3.137179977072984127e-01
3.137179977072984127e-01
3.152464654184180537e-01
3.152464654184180537e-01
3.152464654184180537e-01
3.121895299961788273e-01
3.121895299961788273e-01
3.141001146350783091e-01
3.141001146350783091e-01
3.141001146350783091e-01
3.171570500573175355e-01
3.171570500573175355e-01
3.098968284294994491e-01
3.098968284294994491e-01
3.098968284294994491e-01
3.102789453572793454e-01
3.102789453572793454e-01
3.118074130683989309e-01
3.118074130683989309e-01
3.118074130683989309e-01
3.144822315628582610e-01
3.144822315628582610e-01
3.183034008406572246e-01
3.183034008406572246e-01
3.183034008406572246e-01
3.144822315628582610e-01
3.144822315628582610e-01
3.156285823461979501e-01
3.156285823461979501e-01
3.156285823461979501e-01
3.083683607183798081e-01
3.083683607183798081e-01
3.083683607183798081e-01
3.083683607183798081e-01
3.083683607183798081e-01
3.167749331295376392e-01
3.167749331295376392e-01
3.190676346962170173e-01
3.190676346962170173e-01
3.190676346962170173e-01
3.037829575850209962e-01
3.037829575850209962e-01
3.003439052350019289e-01
3.003439052350019289e-01
3.003439052350019289e-01
3.098968284294994491e-01
3.098968284294994491e-01
2.991975544516621843e-01
2.991975544516621843e-01
2.991975544516621843e-01
3.026366068016813071e-01
3.026366068016813071e-01
2.969048528849828061e-01
2.969048528849828061e-01
2.969048528849828061e-01
3.041650745128008926e-01
3.041650745128008926e-01
3.091325945739396008e-01
3.091325945739396008e-01
3.091325945739396008e-01
2.991975544516621843e-01
2.991975544516621843e-01
3.083683607183798081e-01
3.083683607183798081e-01
3.083683607183798081e-01
3.037829575850209962e-01
3.037829575850209962e-01
2.946121513183034279e-01
2.946121513183034279e-01
2.946121513183034279e-01
3.037829575850209962e-01
3.037829575850209962e-01
3.049293083683607408e-01
3.049293083683607408e-01
3.049293083683607408e-01
2.995796713794421362e-01
2.995796713794421362e-01
2.969048528849828061e-01
2.969048528849828061e-01
2.969048528849828061e-01
2.969048528849828061e-01
2.969048528849828061e-01
2.984333205961023916e-01
2.984333205961023916e-01
2.984333205961023916e-01
3.030187237294612035e-01
3.030187237294612035e-01
3.018723729461215144e-01
3.018723729461215144e-01
3.018723729461215144e-01
2.984333205961023916e-01
2.984333205961023916e-01
2.907909820405044088e-01
2.907909820405044088e-01
2.907909820405044088e-01
2.934658005349636833e-01
2.934658005349636833e-01
2.919373328238440979e-01
2.919373328238440979e-01
2.919373328238440979e-01
2.850592281238059078e-01
2.850592281238059078e-01
2.923194497516239942e-01
2.923194497516239942e-01
2.923194497516239942e-01
2.904088651127245124e-01
2.904088651127245124e-01
2.800917080626671996e-01
2.800917080626671996e-01
2.800917080626671996e-01
2.888803974016048715e-01
2.888803974016048715e-01
2.919373328238440979e-01
2.919373328238440979e-01
2.919373328238440979e-01
2.842949942682460596e-01
2.842949942682460596e-01
2.812380588460068886e-01
2.812380588460068886e-01
2.812380588460068886e-01
2.831486434849063705e-01
2.831486434849063705e-01
2.823844096293465777e-01
2.823844096293465777e-01
2.823844096293465777e-01
2.892625143293847678e-01
2.892625143293847678e-01
2.770347726404279731e-01
2.770347726404279731e-01
2.770347726404279731e-01
2.831486434849063705e-01
2.831486434849063705e-01
2.823844096293465777e-01
2.823844096293465777e-01
2.823844096293465777e-01
2.839128773404661632e-01
2.839128773404661632e-01
2.823844096293465777e-01
2.823844096293465777e-01
2.823844096293465777e-01
2.800917080626671996e-01
2.800917080626671996e-01
2.823844096293465777e-01
2.823844096293465777e-01
2.823844096293465777e-01
2.816201757737867850e-01
2.816201757737867850e-01
2.827665265571264741e-01
2.827665265571264741e-01
2.827665265571264741e-01
2.785632403515475586e-01
2.785632403515475586e-01
2.858234619793657005e-01
2.858234619793657005e-01
2.858234619793657005e-01
2.831486434849063705e-01
2.831486434849063705e-01
2.812380588460068886e-01
2.812380588460068886e-01
2.812380588460068886e-01
2.800917080626671996e-01
2.800917080626671996e-01
2.789453572793274549e-01
2.789453572793274549e-01
2.789453572793274549e-01
2.770347726404279731e-01
2.770347726404279731e-01
2.827665265571264741e-01
2.827665265571264741e-01
2.827665265571264741e-01
2.751241880015284913e-01
2.751241880015284913e-01
2.827665265571264741e-01
2.827665265571264741e-01
2.827665265571264741e-01
2.766526557126480768e-01
2.766526557126480768e-01
2.777990064959877659e-01
2.777990064959877659e-01
2.777990064959877659e-01
2.747420710737485394e-01
2.747420710737485394e-01
2.781811234237676622e-01
2.781811234237676622e-01
2.781811234237676622e-01
2.808559419182269923e-01
2.808559419182269923e-01
2.785632403515475586e-01
2.785632403515475586e-01
2.785632403515475586e-01
2.751241880015284913e-01
2.751241880015284913e-01
2.774168895682078695e-01
2.774168895682078695e-01
2.781811234237676622e-01
2.781811234237676622e-01
2.781811234237676622e-01
2.716851356515093685e-01
2.716851356515093685e-01
2.793274742071073513e-01
2.793274742071073513e-01
2.793274742071073513e-01
2.713030187237294721e-01
2.713030187237294721e-01
2.816201757737867850e-01
2.816201757737867850e-01
2.816201757737867850e-01
2.804738249904470959e-01
2.804738249904470959e-01
2.751241880015284913e-01
2.751241880015284913e-01
2.751241880015284913e-01
2.697745510126098312e-01
2.697745510126098312e-01
2.800917080626671996e-01
2.800917080626671996e-01
2.800917080626671996e-01
2.766526557126480768e-01
2.766526557126480768e-01
2.827665265571264741e-01
2.827665265571264741e-01
2.827665265571264741e-01
2.812380588460068886e-01
2.812380588460068886e-01
2.751241880015284913e-01
2.751241880015284913e-01
2.751241880015284913e-01
2.820022927015666814e-01
2.820022927015666814e-01
2.678639663737103493e-01
2.678639663737103493e-01
2.678639663737103493e-01
2.686282002292701421e-01
2.686282002292701421e-01
2.747420710737485394e-01
2.747420710737485394e-01
2.747420710737485394e-01
2.682460833014902457e-01
2.682460833014902457e-01
2.762705387848681804e-01
2.762705387848681804e-01
2.762705387848681804e-01
2.774168895682078695e-01
2.774168895682078695e-01
2.758884218570882840e-01
2.758884218570882840e-01
2.758884218570882840e-01
2.762705387848681804e-01
2.762705387848681804e-01
2.762705387848681804e-01
2.762705387848681804e-01
2.762705387848681804e-01
2.705387848681696794e-01
2.705387848681696794e-01
2.785632403515475586e-01
2.785632403515475586e-01
2.785632403515475586e-01
2.667176155903706603e-01
2.667176155903706603e-01
2.755063049293083877e-01
2.755063049293083877e-01
2.755063049293083877e-01
2.743599541459686431e-01
2.743599541459686431e-01
2.667176155903706603e-01
2.667176155903706603e-01
2.667176155903706603e-01
2.682460833014902457e-01
2.682460833014902457e-01
2.770347726404279731e-01
2.770347726404279731e-01
2.770347726404279731e-01
2.720672525792892649e-01
2.720672525792892649e-01
2.651891478792510748e-01
2.651891478792510748e-01
2.651891478792510748e-01
2.678639663737103493e-01
2.678639663737103493e-01
2.774168895682078695e-01
2.774168895682078695e-01
2.774168895682078695e-01
2.735957202904088503e-01
2.735957202904088503e-01
2.724493695070691612e-01
2.724493695070691612e-01
2.724493695070691612e-01
2.781811234237676622e-01
2.781811234237676622e-01
2.682460833014902457e-01
2.682460833014902457e-01
2.682460833014902457e-01
2.670997325181505566e-01
2.670997325181505566e-01
2.682460833014902457e-01
2.682460833014902457e-01
2.682460833014902457e-01
2.625143293847917447e-01
2.625143293847917447e-01
2.628964463125716411e-01
2.628964463125716411e-01
2.628964463125716411e-01
2.590752770347726219e-01
2.590752770347726219e-01
2.552541077569736583e-01
2.552541077569736583e-01
2.552541077569736583e-01
2.609858616736721593e-01
2.609858616736721593e-01
2.678639663737103493e-01
2.678639663737103493e-01
2.678639663737103493e-01
2.621322124570118484e-01
2.621322124570118484e-01
2.567825754680932437e-01
2.567825754680932437e-01
2.567825754680932437e-01
2.609858616736721593e-01
2.609858616736721593e-01
2.609858616736721593e-01
2.609858616736721593e-01
2.609858616736721593e-01
2.548719908291937064e-01
2.548719908291937064e-01
2.590752770347726219e-01
2.590752770347726219e-01
2.590752770347726219e-01
2.541077569736339137e-01
2.541077569736339137e-01
2.518150554069545355e-01
2.518150554069545355e-01
2.518150554069545355e-01
2.499044707680550259e-01
2.499044707680550259e-01
2.598395108903324147e-01
2.598395108903324147e-01
2.598395108903324147e-01
2.506687046236148464e-01
2.506687046236148464e-01
2.521971723347344319e-01
2.521971723347344319e-01
2.521971723347344319e-01
2.544898739014138100e-01
2.544898739014138100e-01
2.483760030569354127e-01
2.483760030569354127e-01
2.483760030569354127e-01
2.537256400458540173e-01
2.537256400458540173e-01
2.533435231180741209e-01
2.533435231180741209e-01
2.533435231180741209e-01
2.479938861291555163e-01
2.479938861291555163e-01
2.449369507069163177e-01
2.449369507069163177e-01
2.449369507069163177e-01
2.560183416125334510e-01
2.560183416125334510e-01
2.411157814291172985e-01
2.411157814291172985e-01
2.411157814291172985e-01
2.594573939625525183e-01
2.594573939625525183e-01
2.460833014902560067e-01
2.460833014902560067e-01
2.460833014902560067e-01
2.414978983568972226e-01
2.414978983568972226e-01
2.521971723347344319e-01
2.521971723347344319e-01
2.521971723347344319e-01
2.457011845624761104e-01
2.457011845624761104e-01
2.521971723347344319e-01
2.521971723347344319e-01
2.521971723347344319e-01
2.472296522735957236e-01
2.472296522735957236e-01
2.487581199847153091e-01
2.487581199847153091e-01
2.487581199847153091e-01
2.460833014902560067e-01
2.460833014902560067e-01
2.430263660680168081e-01
2.430263660680168081e-01
2.430263660680168081e-01
2.441727168513565249e-01
2.441727168513565249e-01
2.506687046236148464e-01
2.506687046236148464e-01
2.506687046236148464e-01
2.514329384791746391e-01
2.514329384791746391e-01
2.395873137179977130e-01
2.395873137179977130e-01
2.426442491402369117e-01
2.426442491402369117e-01
2.426442491402369117e-01
2.426442491402369117e-01
2.426442491402369117e-01
2.403515475735575058e-01
2.403515475735575058e-01
2.403515475735575058e-01
2.399694306457776094e-01
2.399694306457776094e-01
2.468475353458158272e-01
2.468475353458158272e-01
2.468475353458158272e-01
2.445548337791364213e-01
2.445548337791364213e-01
2.392051967902178167e-01
2.392051967902178167e-01
2.392051967902178167e-01
2.434084829957967044e-01
2.434084829957967044e-01
2.491402369124952332e-01
2.491402369124952332e-01
2.491402369124952332e-01
2.426442491402369117e-01
2.426442491402369117e-01
2.457011845624761104e-01
2.457011845624761104e-01
2.457011845624761104e-01
2.372946121513183071e-01
2.372946121513183071e-01
2.369124952235384107e-01
2.369124952235384107e-01
2.369124952235384107e-01
2.426442491402369117e-01
2.426442491402369117e-01
2.407336645013374021e-01
2.407336645013374021e-01
2.407336645013374021e-01
2.384409629346579962e-01
2.384409629346579962e-01
2.460833014902560067e-01
2.460833014902560067e-01
2.460833014902560067e-01
2.334734428735192879e-01
2.334734428735192879e-01
2.361482613679785902e-01
2.361482613679785902e-01
2.361482613679785902e-01
2.399694306457776094e-01
2.399694306457776094e-01
2.380588460068780998e-01
2.380588460068780998e-01
2.380588460068780998e-01
2.342376767290791084e-01
2.342376767290791084e-01
2.430263660680168081e-01
2.430263660680168081e-01
2.430263660680168081e-01
2.392051967902178167e-01
2.392051967902178167e-01
2.434084829957967044e-01
2.434084829957967044e-01
2.434084829957967044e-01
2.388230798624378926e-01
2.388230798624378926e-01
2.434084829957967044e-01
2.434084829957967044e-01
2.434084829957967044e-01
2.346197936568590048e-01
2.346197936568590048e-01
2.441727168513565249e-01
2.441727168513565249e-01
2.441727168513565249e-01
2.319449751623997025e-01
2.319449751623997025e-01
2.392051967902178167e-01
2.392051967902178167e-01
2.392051967902178167e-01
2.479938861291555163e-01
2.479938861291555163e-01
2.334734428735192879e-01
2.334734428735192879e-01
2.334734428735192879e-01
2.342376767290791084e-01
2.342376767290791084e-01
2.384409629346579962e-01
2.384409629346579962e-01
2.384409629346579962e-01
2.422621322124570153e-01
2.422621322124570153e-01
2.311807413068398820e-01
2.311807413068398820e-01
2.311807413068398820e-01
2.319449751623997025e-01
2.319449751623997025e-01
2.441727168513565249e-01
2.441727168513565249e-01
2.441727168513565249e-01
2.327092090179594952e-01
2.327092090179594952e-01
2.411157814291172985e-01
2.411157814291172985e-01
2.411157814291172985e-01
2.430263660680168081e-01
2.430263660680168081e-01
2.315628582346198061e-01
2.315628582346198061e-01
2.315628582346198061e-01
2.357661444401986939e-01
2.357661444401986939e-01
2.460833014902560067e-01
2.460833014902560067e-01
2.460833014902560067e-01
2.426442491402369117e-01
2.426442491402369117e-01
2.384409629346579962e-01
2.384409629346579962e-01
2.384409629346579962e-01
2.292701566679404002e-01
2.292701566679404002e-01
2.384409629346579962e-01
2.384409629346579962e-01
2.384409629346579962e-01
2.311807413068398820e-01
2.311807413068398820e-01
2.399694306457776094e-01
2.399694306457776094e-01
2.399694306457776094e-01
2.411157814291172985e-01
2.411157814291172985e-01
2.414978983568972226e-01
2.414978983568972226e-01
2.414978983568972226e-01
2.392051967902178167e-01
2.392051967902178167e-01
2.380588460068780998e-01
2.380588460068780998e-01
2.380588460068780998e-01
2.327092090179594952e-01
2.327092090179594952e-01
2.350019105846389011e-01
2.350019105846389011e-01
2.350019105846389011e-01
2.445548337791364213e-01
2.445548337791364213e-01
2.388230798624378926e-01
2.388230798624378926e-01
2.388230798624378926e-01
2.460833014902560067e-01
2.460833014902560067e-01
2.430263660680168081e-01
2.430263660680168081e-01
2.430263660680168081e-01
2.376767290790982035e-01
2.376767290790982035e-01
2.342376767290791084e-01
2.342376767290791084e-01
2.342376767290791084e-01
2.350019105846389011e-01
2.350019105846389011e-01
2.441727168513565249e-01
2.441727168513565249e-01
2.441727168513565249e-01
2.285059228123805797e-01
2.285059228123805797e-01
2.327092090179594952e-01
2.327092090179594952e-01
2.327092090179594952e-01
2.311807413068398820e-01
2.311807413068398820e-01
2.357661444401986939e-01
2.357661444401986939e-01
2.357661444401986939e-01
2.338555598012991843e-01
2.338555598012991843e-01
2.292701566679404002e-01
2.292701566679404002e-01
2.292701566679404002e-01
2.357661444401986939e-01
2.357661444401986939e-01
2.361482613679785902e-01
2.361482613679785902e-01
2.361482613679785902e-01
2.330913259457393916e-01
2.330913259457393916e-01
2.399694306457776094e-01
2.399694306457776094e-01
2.399694306457776094e-01
2.357661444401986939e-01
2.357661444401986939e-01
2.342376767290791084e-01
2.342376767290791084e-01
2.342376767290791084e-01
2.338555598012991843e-01
2.338555598012991843e-01
2.369124952235384107e-01
2.369124952235384107e-01
2.369124952235384107e-01
2.369124952235384107e-01
2.369124952235384107e-01
2.292701566679404002e-01
2.292701566679404002e-01
2.342376767290791084e-01
2.342376767290791084e-01
2.342376767290791084e-01
2.407336645013374021e-01
2.407336645013374021e-01
2.292701566679404002e-01
2.292701566679404002e-01
2.292701566679404002e-01
2.353840275124187975e-01
2.353840275124187975e-01
2.307986243790599856e-01
2.307986243790599856e-01
2.307986243790599856e-01
2.281238058846006833e-01
2.281238058846006833e-01
2.342376767290791084e-01
2.342376767290791084e-01
2.342376767290791084e-01
2.315628582346198061e-01
2.315628582346198061e-01
2.384409629346579962e-01
2.384409629346579962e-01
2.384409629346579962e-01
2.342376767290791084e-01
2.342376767290791084e-01
2.426442491402369117e-01
2.426442491402369117e-01
2.426442491402369117e-01
2.288880397401604760e-01
2.288880397401604760e-01
2.384409629346579962e-01
2.384409629346579962e-01
2.384409629346579962e-01
2.269774551012609942e-01
2.269774551012609942e-01
2.338555598012991843e-01
2.338555598012991843e-01
2.338555598012991843e-01
2.369124952235384107e-01
2.369124952235384107e-01
2.273595720290408906e-01
2.273595720290408906e-01
2.273595720290408906e-01
2.350019105846389011e-01
2.350019105846389011e-01
2.350019105846389011e-01
2.350019105846389011e-01
2.350019105846389011e-01
2.319449751623997025e-01
2.319449751623997025e-01
2.307986243790599856e-01
2.307986243790599856e-01
2.307986243790599856e-01
2.281238058846006833e-01
2.281238058846006833e-01
2.250668704623614846e-01
2.250668704623614846e-01
2.250668704623614846e-01
2.262132212457011737e-01
2.262132212457011737e-01
2.273595720290408906e-01
2.273595720290408906e-01
2.273595720290408906e-01
2.292701566679404002e-01
2.292701566679404002e-01
2.300343905235001929e-01
2.300343905235001929e-01
2.300343905235001929e-01
2.357661444401986939e-01
2.357661444401986939e-01
2.281238058846006833e-01
2.281238058846006833e-01
2.281238058846006833e-01
2.243026366068016919e-01
2.243026366068016919e-01
2.346197936568590048e-01
2.346197936568590048e-01
2.346197936568590048e-01
2.300343905235001929e-01
2.300343905235001929e-01
2.239205196790217678e-01
2.239205196790217678e-01
2.239205196790217678e-01
2.281238058846006833e-01
2.281238058846006833e-01
2.281238058846006833e-01
2.281238058846006833e-01
2.281238058846006833e-01
2.300343905235001929e-01
2.300343905235001929e-01
2.269774551012609942e-01
2.269774551012609942e-01
2.269774551012609942e-01
2.292701566679404002e-01
2.292701566679404002e-01
2.330913259457393916e-01
2.330913259457393916e-01
2.330913259457393916e-01
2.296522735957202965e-01
2.296522735957202965e-01
2.361482613679785902e-01
2.361482613679785902e-01
2.361482613679785902e-01
2.414978983568972226e-01
2.414978983568972226e-01
2.304165074512800893e-01
2.304165074512800893e-01
2.304165074512800893e-01
2.365303782957585144e-01
2.365303782957585144e-01
2.346197936568590048e-01
2.346197936568590048e-01
2.346197936568590048e-01
2.372946121513183071e-01
2.372946121513183071e-01
2.346197936568590048e-01
2.346197936568590048e-01
2.346197936568590048e-01
2.403515475735575058e-01
2.403515475735575058e-01
2.388230798624378926e-01
2.388230798624378926e-01
2.388230798624378926e-01
2.384409629346579962e-01
2.384409629346579962e-01
2.422621322124570153e-01
2.422621322124570153e-01
2.422621322124570153e-01
2.506687046236148464e-01
2.506687046236148464e-01
2.449369507069163177e-01
2.449369507069163177e-01
2.449369507069163177e-01
2.414978983568972226e-01
2.414978983568972226e-01
2.453190676346962140e-01
2.453190676346962140e-01
2.453190676346962140e-01
2.422621322124570153e-01
2.422621322124570153e-01
2.529614061902942246e-01
2.529614061902942246e-01
2.529614061902942246e-01
2.541077569736339137e-01
2.541077569736339137e-01
2.479938861291555163e-01
2.479938861291555163e-01
2.479938861291555163e-01
2.613679786014520556e-01
2.613679786014520556e-01
2.514329384791746391e-01
2.514329384791746391e-01
2.514329384791746391e-01
2.579289262514329328e-01
2.579289262514329328e-01
2.606037447458922629e-01
2.606037447458922629e-01
2.606037447458922629e-01
2.659533817348108675e-01
2.659533817348108675e-01
2.583110431792128292e-01
2.583110431792128292e-01
2.583110431792128292e-01
2.586931601069927256e-01
2.586931601069927256e-01
2.659533817348108675e-01
2.659533817348108675e-01
2.659533817348108675e-01
2.716851356515093685e-01
2.716851356515093685e-01
2.735957202904088503e-01
2.735957202904088503e-01
2.735957202904088503e-01
2.758884218570882840e-01
2.758884218570882840e-01
2.743599541459686431e-01
2.743599541459686431e-01
2.743599541459686431e-01
2.709209017959495758e-01
2.709209017959495758e-01
2.697745510126098312e-01
2.697745510126098312e-01
2.697745510126098312e-01
2.820022927015666814e-01
2.820022927015666814e-01
2.728314864348490576e-01
2.728314864348490576e-01
2.728314864348490576e-01
2.732136033626289540e-01
2.732136033626289540e-01
2.705387848681696794e-01
2.705387848681696794e-01
2.705387848681696794e-01
2.751241880015284913e-01
2.751241880015284913e-01
2.820022927015666814e-01
2.820022927015666814e-01
2.820022927015666814e-01
2.732136033626289540e-01
2.732136033626289540e-01
2.724493695070691612e-01
2.724493695070691612e-01
2.724493695070691612e-01
2.800917080626671996e-01
2.800917080626671996e-01
2.831486434849063705e-01
2.831486434849063705e-01
2.781811234237676622e-01
2.781811234237676622e-01
2.781811234237676622e-01
2.820022927015666814e-01
2.820022927015666814e-01
2.839128773404661632e-01
2.839128773404661632e-01
2.839128773404661632e-01
2.789453572793274549e-01
2.789453572793274549e-01
2.743599541459686431e-01
2.743599541459686431e-01
2.743599541459686431e-01
2.747420710737485394e-01
2.747420710737485394e-01
2.800917080626671996e-01
2.800917080626671996e-01
2.800917080626671996e-01
2.739778372181887467e-01
2.739778372181887467e-01
2.735957202904088503e-01
2.735957202904088503e-01
2.735957202904088503e-01
2.743599541459686431e-01
2.743599541459686431e-01
2.789453572793274549e-01
2.789453572793274549e-01
2.789453572793274549e-01
2.770347726404279731e-01
2.770347726404279731e-01
2.770347726404279731e-01
2.770347726404279731e-01
2.770347726404279731e-01
2.835307604126862668e-01
2.835307604126862668e-01
2.816201757737867850e-01
2.816201757737867850e-01
2.816201757737867850e-01
2.808559419182269923e-01
2.808559419182269923e-01
2.884982804738249751e-01
2.884982804738249751e-01
2.884982804738249751e-01
2.846771111960260114e-01
2.846771111960260114e-01
2.793274742071073513e-01
2.793274742071073513e-01
2.793274742071073513e-01
2.835307604126862668e-01
2.835307604126862668e-01
2.770347726404279731e-01
2.770347726404279731e-01
2.770347726404279731e-01
2.762705387848681804e-01
2.762705387848681804e-01
2.751241880015284913e-01
2.751241880015284913e-01
2.751241880015284913e-01
2.728314864348490576e-01
2.728314864348490576e-01
2.770347726404279731e-01
2.770347726404279731e-01
2.770347726404279731e-01
2.804738249904470959e-01
2.804738249904470959e-01
2.713030187237294721e-01
2.713030187237294721e-01
2.713030187237294721e-01
2.751241880015284913e-01
2.751241880015284913e-01
2.751241880015284913e-01
2.751241880015284913e-01
2.751241880015284913e-01
2.789453572793274549e-01
2.789453572793274549e-01
2.743599541459686431e-01
2.743599541459686431e-01
2.743599541459686431e-01
2.816201757737867850e-01
2.816201757737867850e-01
2.743599541459686431e-01
2.743599541459686431e-01
2.743599541459686431e-01
2.835307604126862668e-01
2.835307604126862668e-01
2.751241880015284913e-01
2.751241880015284913e-01
2.751241880015284913e-01
2.724493695070691612e-01
2.724493695070691612e-01
2.831486434849063705e-01
2.831486434849063705e-01
2.831486434849063705e-01
2.804738249904470959e-01
2.804738249904470959e-01
2.831486434849063705e-01
2.831486434849063705e-01
2.831486434849063705e-01
2.827665265571264741e-01
2.827665265571264741e-01
2.781811234237676622e-01
2.781811234237676622e-01
2.781811234237676622e-01
2.724493695070691612e-01
2.724493695070691612e-01
2.728314864348490576e-01
2.728314864348490576e-01
2.728314864348490576e-01
2.735957202904088503e-01
2.735957202904088503e-01
2.743599541459686431e-01
2.743599541459686431e-01
2.743599541459686431e-01
2.812380588460068886e-01
2.812380588460068886e-01
2.827665265571264741e-01
2.827665265571264741e-01
2.827665265571264741e-01
2.709209017959495758e-01
2.709209017959495758e-01
2.709209017959495758e-01
2.709209017959495758e-01
2.709209017959495758e-01
2.758884218570882840e-01
2.758884218570882840e-01
2.739778372181887467e-01
2.739778372181887467e-01
2.739778372181887467e-01
2.716851356515093685e-01
2.716851356515093685e-01
2.621322124570118484e-01
2.621322124570118484e-01
2.621322124570118484e-01
2.770347726404279731e-01
2.770347726404279731e-01
2.636606801681314338e-01
2.636606801681314338e-01
2.636606801681314338e-01
2.701566679403897830e-01
2.701566679403897830e-01
2.682460833014902457e-01
2.682460833014902457e-01
2.682460833014902457e-01
2.678639663737103493e-01
2.678639663737103493e-01
2.705387848681696794e-01
2.705387848681696794e-01
2.705387848681696794e-01
2.655712648070309712e-01
2.655712648070309712e-01
2.670997325181505566e-01
2.670997325181505566e-01
2.670997325181505566e-01
2.686282002292701421e-01
2.686282002292701421e-01
2.655712648070309712e-01
2.655712648070309712e-01
2.655712648070309712e-01
2.632785632403515375e-01
2.632785632403515375e-01
2.651891478792510748e-01
2.651891478792510748e-01
2.651891478792510748e-01
2.564004585403133474e-01
2.564004585403133474e-01
2.621322124570118484e-01
2.621322124570118484e-01
2.621322124570118484e-01
2.544898739014138100e-01
2.544898739014138100e-01
2.628964463125716411e-01
2.628964463125716411e-01
2.628964463125716411e-01
2.521971723347344319e-01
2.521971723347344319e-01
2.606037447458922629e-01
2.606037447458922629e-01
2.606037447458922629e-01
2.571646923958731401e-01
2.571646923958731401e-01
2.644249140236912266e-01
2.644249140236912266e-01
2.644249140236912266e-01
2.606037447458922629e-01
2.606037447458922629e-01
2.628964463125716411e-01
2.628964463125716411e-01
2.628964463125716411e-01
2.609858616736721593e-01
2.609858616736721593e-01
2.499044707680550259e-01
2.499044707680550259e-01
2.499044707680550259e-01
2.567825754680932437e-01
2.567825754680932437e-01
2.529614061902942246e-01
2.529614061902942246e-01
2.529614061902942246e-01
2.632785632403515375e-01
2.632785632403515375e-01
2.544898739014138100e-01
2.544898739014138100e-01
2.529614061902942246e-01
2.529614061902942246e-01
2.529614061902942246e-01
2.564004585403133474e-01
2.564004585403133474e-01
2.632785632403515375e-01
2.632785632403515375e-01
2.632785632403515375e-01
2.521971723347344319e-01
2.521971723347344319e-01
2.590752770347726219e-01
2.590752770347726219e-01
2.590752770347726219e-01
2.609858616736721593e-01
2.609858616736721593e-01
2.621322124570118484e-01
2.621322124570118484e-01
2.621322124570118484e-01
2.541077569736339137e-01
2.541077569736339137e-01
2.548719908291937064e-01
2.548719908291937064e-01
2.548719908291937064e-01
2.518150554069545355e-01
2.518150554069545355e-01
2.541077569736339137e-01
2.541077569736339137e-01
2.541077569736339137e-01
2.640427970959113302e-01
2.640427970959113302e-01
2.518150554069545355e-01
2.518150554069545355e-01
2.518150554069545355e-01
2.617500955292319520e-01
2.617500955292319520e-01
2.583110431792128292e-01
2.583110431792128292e-01
2.583110431792128292e-01
2.586931601069927256e-01
2.586931601069927256e-01
2.476117692013756200e-01
2.476117692013756200e-01
2.476117692013756200e-01
2.544898739014138100e-01
2.544898739014138100e-01
2.564004585403133474e-01
2.564004585403133474e-01
2.564004585403133474e-01
2.636606801681314338e-01
2.636606801681314338e-01
2.564004585403133474e-01
2.564004585403133474e-01
2.564004585403133474e-01
2.583110431792128292e-01
2.583110431792128292e-01
2.583110431792128292e-01
2.583110431792128292e-01
2.583110431792128292e-01
2.518150554069545355e-01
2.518150554069545355e-01
2.518150554069545355e-01
2.518150554069545355e-01
2.518150554069545355e-01
2.613679786014520556e-01
2.613679786014520556e-01
2.598395108903324147e-01
2.598395108903324147e-01
2.598395108903324147e-01
2.567825754680932437e-01
2.567825754680932437e-01
2.594573939625525183e-01
2.594573939625525183e-01
2.594573939625525183e-01
2.476117692013756200e-01
2.476117692013756200e-01
2.487581199847153091e-01
2.487581199847153091e-01
2.487581199847153091e-01
2.548719908291937064e-01
2.548719908291937064e-01
2.598395108903324147e-01
2.598395108903324147e-01
2.598395108903324147e-01
2.464654184180359309e-01
2.464654184180359309e-01
2.560183416125334510e-01
2.560183416125334510e-01
2.560183416125334510e-01
2.552541077569736583e-01
2.552541077569736583e-01
2.468475353458158272e-01
2.468475353458158272e-01
2.468475353458158272e-01
2.476117692013756200e-01
2.476117692013756200e-01
2.499044707680550259e-01
2.499044707680550259e-01
2.499044707680550259e-01
2.426442491402369117e-01
2.426442491402369117e-01
2.491402369124952332e-01
2.491402369124952332e-01
2.491402369124952332e-01
2.491402369124952332e-01
2.491402369124952332e-01
2.537256400458540173e-01
2.537256400458540173e-01
2.537256400458540173e-01
2.506687046236148464e-01
2.506687046236148464e-01
2.502865876958349500e-01
2.502865876958349500e-01
2.502865876958349500e-01
2.457011845624761104e-01
2.457011845624761104e-01
2.525792892625143282e-01
2.525792892625143282e-01
2.525792892625143282e-01
2.460833014902560067e-01
2.460833014902560067e-01
2.411157814291172985e-01
2.411157814291172985e-01
2.411157814291172985e-01
2.437905999235766008e-01
2.437905999235766008e-01
2.460833014902560067e-01
2.460833014902560067e-01
2.460833014902560067e-01
2.437905999235766008e-01
2.437905999235766008e-01
2.380588460068780998e-01
2.380588460068780998e-01
2.380588460068780998e-01
2.392051967902178167e-01
2.392051967902178167e-01
2.460833014902560067e-01
2.460833014902560067e-01
2.460833014902560067e-01
2.422621322124570153e-01
2.422621322124570153e-01
2.369124952235384107e-01
2.369124952235384107e-01
2.369124952235384107e-01
2.384409629346579962e-01
2.384409629346579962e-01
2.518150554069545355e-01
2.518150554069545355e-01
2.518150554069545355e-01
2.330913259457393916e-01
2.330913259457393916e-01
2.399694306457776094e-01
2.399694306457776094e-01
2.399694306457776094e-01
2.399694306457776094e-01
2.399694306457776094e-01
2.457011845624761104e-01
2.457011845624761104e-01
2.457011845624761104e-01
2.434084829957967044e-01
2.434084829957967044e-01
2.376767290790982035e-01
2.376767290790982035e-01
2.376767290790982035e-01
2.437905999235766008e-01
2.437905999235766008e-01
2.403515475735575058e-01
2.403515475735575058e-01
2.403515475735575058e-01
2.411157814291172985e-01
2.411157814291172985e-01
2.449369507069163177e-01
2.449369507069163177e-01
2.449369507069163177e-01
2.487581199847153091e-01
2.487581199847153091e-01
2.411157814291172985e-01
2.411157814291172985e-01
2.411157814291172985e-01
2.361482613679785902e-01
2.361482613679785902e-01
2.346197936568590048e-01
2.346197936568590048e-01
2.346197936568590048e-01
2.350019105846389011e-01
2.350019105846389011e-01
2.330913259457393916e-01
2.330913259457393916e-01
2.330913259457393916e-01
2.418800152846771190e-01
2.418800152846771190e-01
2.319449751623997025e-01
2.319449751623997025e-01
2.319449751623997025e-01
2.300343905235001929e-01
2.300343905235001929e-01
2.350019105846389011e-01
2.350019105846389011e-01
2.350019105846389011e-01
2.338555598012991843e-01
2.338555598012991843e-01
2.411157814291172985e-01
2.411157814291172985e-01
2.411157814291172985e-01
2.350019105846389011e-01
2.350019105846389011e-01
2.426442491402369117e-01
2.426442491402369117e-01
2.342376767290791084e-01
2.342376767290791084e-01
2.342376767290791084e-01
2.395873137179977130e-01
2.395873137179977130e-01
2.353840275124187975e-01
2.353840275124187975e-01
2.353840275124187975e-01
2.395873137179977130e-01
2.395873137179977130e-01
2.323270920901795988e-01
2.323270920901795988e-01
2.323270920901795988e-01
2.315628582346198061e-01
2.315628582346198061e-01
2.395873137179977130e-01
2.395873137179977130e-01
2.395873137179977130e-01
2.380588460068780998e-01
2.380588460068780998e-01
2.350019105846389011e-01
2.350019105846389011e-01
2.350019105846389011e-01
2.307986243790599856e-01
2.307986243790599856e-01
2.353840275124187975e-01
2.353840275124187975e-01
2.353840275124187975e-01
2.395873137179977130e-01
2.395873137179977130e-01
2.392051967902178167e-01
2.392051967902178167e-01
2.392051967902178167e-01
2.445548337791364213e-01
2.445548337791364213e-01
2.392051967902178167e-01
2.392051967902178167e-01
2.392051967902178167e-01
2.323270920901795988e-01
2.323270920901795988e-01
2.399694306457776094e-01
2.399694306457776094e-01
2.399694306457776094e-01
2.315628582346198061e-01
2.315628582346198061e-01
2.307986243790599856e-01
2.307986243790599856e-01
2.307986243790599856e-01
2.342376767290791084e-01
2.342376767290791084e-01
2.342376767290791084e-01
2.342376767290791084e-01
2.342376767290791084e-01
2.334734428735192879e-01
2.334734428735192879e-01
2.372946121513183071e-01
2.372946121513183071e-01
2.372946121513183071e-01
2.265953381734810979e-01
2.265953381734810979e-01
2.292701566679404002e-01
2.292701566679404002e-01
2.292701566679404002e-01
2.307986243790599856e-01
2.307986243790599856e-01
2.307986243790599856e-01
2.307986243790599856e-01
2.307986243790599856e-01
2.330913259457393916e-01
2.330913259457393916e-01
2.437905999235766008e-01
2.437905999235766008e-01
2.437905999235766008e-01
2.296522735957202965e-01
2.296522735957202965e-01
2.323270920901795988e-01
2.323270920901795988e-01
2.323270920901795988e-01
2.342376767290791084e-01
2.342376767290791084e-01
2.353840275124187975e-01
2.353840275124187975e-01
2.353840275124187975e-01
2.346197936568590048e-01
2.346197936568590048e-01
2.327092090179594952e-01
2.327092090179594952e-01
2.327092090179594952e-01
2.426442491402369117e-01
2.426442491402369117e-01
2.311807413068398820e-01
2.311807413068398820e-01
2.311807413068398820e-01
2.307986243790599856e-01
2.307986243790599856e-01
2.292701566679404002e-01
2.292701566679404002e-01
2.292701566679404002e-01
2.319449751623997025e-01
2.319449751623997025e-01
2.304165074512800893e-01
2.304165074512800893e-01
2.304165074512800893e-01
2.323270920901795988e-01
2.323270920901795988e-01
2.353840275124187975e-01
2.353840275124187975e-01
2.353840275124187975e-01
2.288880397401604760e-01
2.288880397401604760e-01
2.361482613679785902e-01
2.361482613679785902e-01
2.361482613679785902e-01
2.327092090179594952e-01
2.327092090179594952e-01
2.422621322124570153e-01
2.422621322124570153e-01
2.422621322124570153e-01
2.342376767290791084e-01
2.342376767290791084e-01
2.319449751623997025e-01
2.319449751623997025e-01
2.319449751623997025e-01
2.376767290790982035e-01
2.376767290790982035e-01
2.369124952235384107e-01
2.369124952235384107e-01
2.369124952235384107e-01
2.235384027512418714e-01
2.235384027512418714e-01
2.281238058846006833e-01
2.281238058846006833e-01
2.281238058846006833e-01
2.200993504012227764e-01
2.200993504012227764e-01
2.319449751623997025e-01
2.319449751623997025e-01
2.319449751623997025e-01
2.296522735957202965e-01
2.296522735957202965e-01
2.304165074512800893e-01
2.304165074512800893e-01
2.304165074512800893e-01
2.376767290790982035e-01
2.376767290790982035e-01
2.319449751623997025e-01
2.319449751623997025e-01
2.319449751623997025e-01
2.376767290790982035e-01
2.376767290790982035e-01
2.296522735957202965e-01
2.296522735957202965e-01
2.296522735957202965e-01
2.246847535345815883e-01
2.246847535345815883e-01
2.292701566679404002e-01
2.292701566679404002e-01
2.292701566679404002e-01
2.262132212457011737e-01
2.262132212457011737e-01
2.311807413068398820e-01
2.311807413068398820e-01
2.311807413068398820e-01
2.258311043179212774e-01
2.258311043179212774e-01
2.220099350401222860e-01
2.220099350401222860e-01
2.220099350401222860e-01
2.285059228123805797e-01
2.285059228123805797e-01
2.288880397401604760e-01
2.288880397401604760e-01
2.288880397401604760e-01
2.246847535345815883e-01
2.246847535345815883e-01
2.208635842567825691e-01
2.208635842567825691e-01
2.208635842567825691e-01
2.277416889568207869e-01
2.277416889568207869e-01
2.281238058846006833e-01
2.281238058846006833e-01
2.281238058846006833e-01
2.281238058846006833e-01
2.281238058846006833e-01
2.296522735957202965e-01
2.296522735957202965e-01
2.296522735957202965e-01
2.250668704623614846e-01
2.250668704623614846e-01
2.185708826901031632e-01
2.185708826901031632e-01
2.185708826901031632e-01
2.216278181123423896e-01
2.216278181123423896e-01
2.258311043179212774e-01
2.258311043179212774e-01
2.258311043179212774e-01
2.223920519679021823e-01
2.223920519679021823e-01
2.258311043179212774e-01
2.258311043179212774e-01
2.281238058846006833e-01
2.281238058846006833e-01
2.281238058846006833e-01
2.273595720290408906e-01
2.273595720290408906e-01
2.254489873901413810e-01
2.254489873901413810e-01
2.254489873901413810e-01
2.262132212457011737e-01
2.262132212457011737e-01
2.189529996178830595e-01
2.189529996178830595e-01
2.189529996178830595e-01
2.197172334734428800e-01
2.197172334734428800e-01
2.197172334734428800e-01
2.197172334734428800e-01
2.197172334734428800e-01
2.158960641956438609e-01
2.158960641956438609e-01
2.254489873901413810e-01
2.254489873901413810e-01
2.254489873901413810e-01
2.181887657623232668e-01
2.181887657623232668e-01
2.208635842567825691e-01
2.208635842567825691e-01
2.208635842567825691e-01
2.158960641956438609e-01
2.158960641956438609e-01
2.178066488345433704e-01
2.178066488345433704e-01
2.178066488345433704e-01
2.181887657623232668e-01
2.181887657623232668e-01
2.178066488345433704e-01
2.178066488345433704e-01
2.178066488345433704e-01
2.197172334734428800e-01
2.197172334734428800e-01
2.116927779900649731e-01
2.116927779900649731e-01
2.116927779900649731e-01
2.181887657623232668e-01
2.181887657623232668e-01
2.158960641956438609e-01
2.158960641956438609e-01
2.158960641956438609e-01
2.109285441345051526e-01
2.109285441345051526e-01
2.231562858234619751e-01
2.231562858234619751e-01
2.231562858234619751e-01
2.223920519679021823e-01
2.223920519679021823e-01
2.223920519679021823e-01
2.223920519679021823e-01
2.223920519679021823e-01
2.189529996178830595e-01
2.189529996178830595e-01
2.113106610622850490e-01
2.113106610622850490e-01
2.113106610622850490e-01
2.128391287734046622e-01
2.128391287734046622e-01
2.189529996178830595e-01
2.189529996178830595e-01
2.189529996178830595e-01
2.113106610622850490e-01
2.113106610622850490e-01
2.124570118456247658e-01
2.124570118456247658e-01
2.124570118456247658e-01
2.185708826901031632e-01
2.185708826901031632e-01
2.204814673290026728e-01
2.204814673290026728e-01
2.204814673290026728e-01
2.094000764233855671e-01
2.094000764233855671e-01
2.197172334734428800e-01
2.197172334734428800e-01
2.197172334734428800e-01
2.193351165456629837e-01
2.193351165456629837e-01
2.128391287734046622e-01
2.128391287734046622e-01
2.128391287734046622e-01
2.185708826901031632e-01
2.185708826901031632e-01
2.174245319067634741e-01
2.174245319067634741e-01
2.174245319067634741e-01
2.113106610622850490e-01
2.113106610622850490e-01
2.139854795567443513e-01
2.139854795567443513e-01
2.139854795567443513e-01
2.204814673290026728e-01
2.204814673290026728e-01
2.185708826901031632e-01
2.185708826901031632e-01
2.185708826901031632e-01
2.113106610622850490e-01
2.113106610622850490e-01
2.181887657623232668e-01
2.181887657623232668e-01
2.181887657623232668e-01
