2.468475353458158272e-01
2.724493695070691612e-01
2.724493695070691612e-01
2.724493695070691612e-01
2.521971723347344319e-01
2.521971723347344319e-01
2.468475353458158272e-01
2.468475353458158272e-01
2.468475353458158272e-01
2.713030187237294721e-01
2.713030187237294721e-01
2.476117692013756200e-01
2.476117692013756200e-01
2.476117692013756200e-01
2.621322124570118484e-01
2.621322124570118484e-01
2.361482613679785902e-01
2.361482613679785902e-01
2.361482613679785902e-01
2.567825754680932437e-01
2.567825754680932437e-01
2.579289262514329328e-01
2.579289262514329328e-01
2.579289262514329328e-01
2.384409629346579962e-01
2.384409629346579962e-01
2.307986243790599856e-01
2.307986243790599856e-01
2.307986243790599856e-01
2.472296522735957236e-01
2.472296522735957236e-01
2.472296522735957236e-01
2.472296522735957236e-01
2.472296522735957236e-01
2.258311043179212774e-01
2.258311043179212774e-01
2.200993504012227764e-01
2.200993504012227764e-01
2.200993504012227764e-01
2.204814673290026728e-01
2.204814673290026728e-01
2.204814673290026728e-01
2.204814673290026728e-01
2.204814673290026728e-01
2.239205196790217678e-01
2.239205196790217678e-01
2.204814673290026728e-01
2.204814673290026728e-01
2.204814673290026728e-01
2.338555598012991843e-01
2.338555598012991843e-01
2.086358425678257467e-01
2.086358425678257467e-01
2.086358425678257467e-01
2.334734428735192879e-01
2.334734428735192879e-01
2.300343905235001929e-01
2.300343905235001929e-01
2.300343905235001929e-01
2.032862055789071420e-01
2.032862055789071420e-01
2.074894917844860576e-01
2.074894917844860576e-01
2.074894917844860576e-01
2.120748949178448695e-01
2.120748949178448695e-01
2.032862055789071420e-01
2.032862055789071420e-01
2.032862055789071420e-01
2.097821933511654635e-01
2.097821933511654635e-01
2.120748949178448695e-01
2.120748949178448695e-01
2.120748949178448695e-01
2.223920519679021823e-01
2.223920519679021823e-01
1.994650363011081506e-01
1.994650363011081506e-01
1.994650363011081506e-01
1.941153993121895183e-01
1.941153993121895183e-01
1.918226977455101123e-01
1.918226977455101123e-01
1.918226977455101123e-01
1.994650363011081506e-01
1.994650363011081506e-01
1.918226977455101123e-01
1.918226977455101123e-01
1.918226977455101123e-01
2.013756209400076325e-01
2.013756209400076325e-01
2.067252579289262648e-01
2.067252579289262648e-01
2.067252579289262648e-01
1.837982422621322054e-01
1.837982422621322054e-01
1.990829193733282265e-01
1.990829193733282265e-01
1.990829193733282265e-01
1.815055406954527994e-01
1.815055406954527994e-01
1.773022544898739117e-01
1.773022544898739117e-01
1.773022544898739117e-01
1.822697745510126199e-01
1.822697745510126199e-01
1.891478792510508100e-01
1.891478792510508100e-01
1.891478792510508100e-01
1.757737867787542985e-01
1.757737867787542985e-01
1.738632021398547889e-01
1.738632021398547889e-01
1.738632021398547889e-01
1.757737867787542985e-01
1.757737867787542985e-01
1.994650363011081506e-01
1.994650363011081506e-01
1.994650363011081506e-01
1.723347344287352034e-01
1.723347344287352034e-01
1.761559037065341948e-01
1.761559037065341948e-01
1.761559037065341948e-01
1.902942300343905269e-01
1.902942300343905269e-01
1.704241497898356938e-01
1.704241497898356938e-01
1.704241497898356938e-01
1.841803591899121018e-01
1.841803591899121018e-01
1.669850974398165711e-01
1.669850974398165711e-01
1.669850974398165711e-01
1.685135651509361843e-01
1.685135651509361843e-01
1.818876576232326958e-01
1.818876576232326958e-01
1.818876576232326958e-01
1.631639281620175796e-01
1.631639281620175796e-01
1.860909438288116113e-01
1.860909438288116113e-01
1.860909438288116113e-01
1.822697745510126199e-01
1.822697745510126199e-01
1.780664883454337044e-01
1.780664883454337044e-01
1.780664883454337044e-01
1.666029805120366747e-01
1.666029805120366747e-01
1.784486052732136008e-01
1.784486052732136008e-01
1.784486052732136008e-01
1.807413068398930067e-01
1.807413068398930067e-01
1.532288880397401631e-01
1.532288880397401631e-01
1.532288880397401631e-01
1.765380206343140912e-01
1.765380206343140912e-01
1.711883836453954866e-01
1.711883836453954866e-01
1.711883836453954866e-01
1.604891096675582773e-01
1.604891096675582773e-01
1.746274359954146094e-01
1.746274359954146094e-01
1.746274359954146094e-01
1.494077187619411440e-01
1.494077187619411440e-01
1.692777990064959770e-01
1.692777990064959770e-01
1.692777990064959770e-01
1.727168513565150998e-01
1.727168513565150998e-01
1.742453190676346853e-01
1.742453190676346853e-01
1.742453190676346853e-01
1.486434849063813513e-01
1.486434849063813513e-01
1.410011463507833407e-01
1.410011463507833407e-01
1.410011463507833407e-01
1.482613679786014549e-01
1.482613679786014549e-01
1.436759648452426430e-01
1.436759648452426430e-01
1.436759648452426430e-01
1.639281620175773724e-01
1.639281620175773724e-01
1.532288880397401631e-01
1.532288880397401631e-01
1.673672143675964952e-01
1.673672143675964952e-01
1.673672143675964952e-01
1.635460450897974760e-01
1.635460450897974760e-01
1.646923958731371929e-01
1.646923958731371929e-01
1.646923958731371929e-01
1.486434849063813513e-01
1.486434849063813513e-01
1.390905617118838311e-01
1.390905617118838311e-01
1.390905617118838311e-01
1.585785250286587678e-01
1.585785250286587678e-01
1.406190294230034443e-01
1.406190294230034443e-01
1.406190294230034443e-01
1.589606419564386641e-01
1.589606419564386641e-01
1.585785250286587678e-01
1.585785250286587678e-01
1.585785250286587678e-01
1.501719526175009645e-01
1.501719526175009645e-01
1.383263278563240384e-01
1.383263278563240384e-01
1.383263278563240384e-01
1.394726786396637275e-01
1.394726786396637275e-01
1.612533435231180701e-01
1.612533435231180701e-01
1.612533435231180701e-01
1.639281620175773724e-01
1.639281620175773724e-01
1.379442109285441420e-01
1.379442109285441420e-01
1.379442109285441420e-01
1.612533435231180701e-01
1.612533435231180701e-01
1.360336262896446324e-01
1.360336262896446324e-01
1.360336262896446324e-01
1.501719526175009645e-01
1.501719526175009645e-01
1.562858234619793618e-01
1.562858234619793618e-01
1.562858234619793618e-01
1.608712265953381737e-01
1.608712265953381737e-01
1.352693924340848397e-01
1.352693924340848397e-01
1.352693924340848397e-01
1.509361864730607572e-01
1.509361864730607572e-01
1.352693924340848397e-01
1.352693924340848397e-01
1.352693924340848397e-01
1.589606419564386641e-01
1.589606419564386641e-01
1.318303400840657169e-01
1.318303400840657169e-01
1.318303400840657169e-01
1.303018723729461315e-01
1.303018723729461315e-01
1.517004203286205499e-01
1.517004203286205499e-01
1.517004203286205499e-01
1.352693924340848397e-01
1.352693924340848397e-01
1.291555215896064146e-01
1.291555215896064146e-01
1.291555215896064146e-01
1.310661062285059242e-01
1.310661062285059242e-01
1.505540695452808608e-01
1.505540695452808608e-01
1.505540695452808608e-01
1.413832632785632371e-01
1.413832632785632371e-01
1.325945739396255374e-01
1.325945739396255374e-01
1.325945739396255374e-01
1.459686664119220489e-01
1.459686664119220489e-01
1.257164692395873196e-01
1.257164692395873196e-01
1.257164692395873196e-01
1.306839893007260278e-01
1.306839893007260278e-01
1.497898356897210681e-01
1.497898356897210681e-01
1.497898356897210681e-01
1.218952999617883004e-01
1.218952999617883004e-01
1.272449369507069050e-01
1.272449369507069050e-01
1.272449369507069050e-01
1.226595338173481070e-01
1.226595338173481070e-01
1.196025983951089083e-01
1.196025983951089083e-01
1.196025983951089083e-01
1.364157432174245288e-01
1.364157432174245288e-01
1.253343523118074232e-01
1.253343523118074232e-01
1.253343523118074232e-01
1.467329002674818417e-01
1.467329002674818417e-01
1.234237676729079136e-01
1.234237676729079136e-01
1.234237676729079136e-01
1.513183034008406536e-01
1.513183034008406536e-01
1.253343523118074232e-01
1.253343523118074232e-01
1.253343523118074232e-01
1.410011463507833407e-01
1.410011463507833407e-01
1.203668322506687011e-01
1.203668322506687011e-01
1.203668322506687011e-01
1.474971341230416622e-01
1.474971341230416622e-01
1.257164692395873196e-01
1.257164692395873196e-01
1.257164692395873196e-01
1.295376385173863110e-01
1.295376385173863110e-01
1.257164692395873196e-01
1.257164692395873196e-01
1.257164692395873196e-01
1.429117309896828503e-01
1.429117309896828503e-01
1.222774168895682106e-01
1.222774168895682106e-01
1.222774168895682106e-01
1.283912877340466219e-01
1.283912877340466219e-01
1.356515093618647361e-01
1.356515093618647361e-01
1.356515093618647361e-01
1.394726786396637275e-01
1.394726786396637275e-01
1.306839893007260278e-01
1.306839893007260278e-01
1.306839893007260278e-01
1.310661062285059242e-01
1.310661062285059242e-01
1.394726786396637275e-01
1.394726786396637275e-01
1.394726786396637275e-01
1.176920137562093988e-01
1.176920137562093988e-01
1.306839893007260278e-01
1.306839893007260278e-01
1.306839893007260278e-01
1.322124570118456133e-01
1.322124570118456133e-01
1.176920137562093988e-01
1.176920137562093988e-01
1.176920137562093988e-01
1.406190294230034443e-01
1.406190294230034443e-01
1.367978601452044252e-01
1.367978601452044252e-01
1.367978601452044252e-01
1.417653802063431334e-01
1.417653802063431334e-01
1.134887275506304971e-01
1.134887275506304971e-01
1.134887275506304971e-01
1.398547955674436516e-01
1.398547955674436516e-01
1.123423767672907941e-01
1.123423767672907941e-01
1.123423767672907941e-01
1.134887275506304971e-01
1.134887275506304971e-01
1.134887275506304971e-01
1.134887275506304971e-01
1.134887275506304971e-01
1.371799770729843215e-01
1.371799770729843215e-01
1.268628200229270087e-01
1.268628200229270087e-01
1.268628200229270087e-01
1.150171952617500964e-01
1.150171952617500964e-01
1.199847153228888047e-01
1.199847153228888047e-01
1.199847153228888047e-01
1.440580817730225394e-01
1.440580817730225394e-01
1.436759648452426430e-01
1.436759648452426430e-01
1.436759648452426430e-01
1.513183034008406536e-01
1.513183034008406536e-01
1.291555215896064146e-01
1.291555215896064146e-01
1.333588077951853301e-01
1.333588077951853301e-01
1.333588077951853301e-01
1.692777990064959770e-01
1.692777990064959770e-01
1.513183034008406536e-01
1.513183034008406536e-01
1.513183034008406536e-01
1.620175773786778628e-01
1.620175773786778628e-01
1.887657623232709136e-01
1.887657623232709136e-01
1.887657623232709136e-01
1.700420328620557975e-01
1.700420328620557975e-01
1.952617500955292351e-01
1.952617500955292351e-01
1.952617500955292351e-01
2.048146732900267553e-01
2.048146732900267553e-01
1.944975162399694424e-01
1.944975162399694424e-01
1.944975162399694424e-01
2.067252579289262648e-01
2.067252579289262648e-01
2.292701566679404002e-01
2.292701566679404002e-01
2.292701566679404002e-01
2.453190676346962140e-01
2.453190676346962140e-01
2.632785632403515375e-01
2.632785632403515375e-01
2.632785632403515375e-01
2.464654184180359309e-01
2.464654184180359309e-01
2.636606801681314338e-01
2.636606801681314338e-01
2.636606801681314338e-01
2.739778372181887467e-01
2.739778372181887467e-01
2.988154375238822880e-01
2.988154375238822880e-01
2.988154375238822880e-01
2.961406190294230134e-01
2.961406190294230134e-01
3.049293083683607408e-01
3.049293083683607408e-01
3.049293083683607408e-01
3.037829575850209962e-01
3.037829575850209962e-01
3.228888039740160365e-01
3.228888039740160365e-01
3.228888039740160365e-01
3.213603362628964510e-01
3.213603362628964510e-01
3.412304165074512841e-01
3.412304165074512841e-01
3.412304165074512841e-01
3.614826136797860134e-01
3.614826136797860134e-01
3.595720290408865316e-01
3.595720290408865316e-01
3.595720290408865316e-01
3.511654566297287006e-01
3.511654566297287006e-01
3.859380970576996583e-01
3.859380970576996583e-01
3.859380970576996583e-01
3.653037829575850326e-01
3.653037829575850326e-01
3.729461215131830154e-01
3.729461215131830154e-01
3.729461215131830154e-01
3.947267863966373858e-01
3.947267863966373858e-01
3.794421092854413646e-01
3.794421092854413646e-01
3.794421092854413646e-01
3.962552541077569712e-01
3.962552541077569712e-01
4.058081773022544914e-01
4.058081773022544914e-01
4.058081773022544914e-01
4.165074512800917006e-01
4.165074512800917006e-01
4.283530760412686544e-01
4.283530760412686544e-01
4.283530760412686544e-01
4.210928544134505125e-01
4.210928544134505125e-01
4.306457776079480326e-01
4.306457776079480326e-01
4.306457776079480326e-01
4.188001528467711343e-01
4.188001528467711343e-01
4.123041650745127851e-01
4.123041650745127851e-01
4.123041650745127851e-01
4.317921283912877217e-01
4.317921283912877217e-01
4.321742453190676181e-01
4.321742453190676181e-01
4.321742453190676181e-01
4.294994268246083435e-01
4.294994268246083435e-01
4.497516239969430729e-01
4.497516239969430729e-01
4.497516239969430729e-01
4.279709591134887026e-01
4.279709591134887026e-01
4.463125716469239501e-01
4.463125716469239501e-01
4.463125716469239501e-01
4.367596484524264300e-01
4.367596484524264300e-01
4.432556362246847792e-01
4.432556362246847792e-01
4.432556362246847792e-01
4.340848299579671554e-01
4.340848299579671554e-01
4.375238823079862227e-01
4.375238823079862227e-01
4.375238823079862227e-01
4.528085594191822438e-01
4.528085594191822438e-01
4.424914023691249310e-01
4.424914023691249310e-01
4.424914023691249310e-01
4.635078333970195086e-01
4.635078333970195086e-01
4.589224302636606967e-01
4.589224302636606967e-01
4.589224302636606967e-01
4.615972487581199712e-01
4.615972487581199712e-01
4.432556362246847792e-01
4.432556362246847792e-01
4.432556362246847792e-01
4.505158578525028656e-01
4.505158578525028656e-01
4.615972487581199712e-01
4.615972487581199712e-01
4.615972487581199712e-01
4.700038211692778023e-01
4.700038211692778023e-01
4.604508979747802822e-01
4.604508979747802822e-01
4.604508979747802822e-01
4.486052732136033838e-01
4.486052732136033838e-01
4.505158578525028656e-01
4.505158578525028656e-01
4.505158578525028656e-01
4.619793656858998676e-01
4.619793656858998676e-01
4.554833779136415739e-01
4.554833779136415739e-01
4.554833779136415739e-01
4.466946885747038465e-01
4.466946885747038465e-01
4.658005349636988868e-01
4.658005349636988868e-01
4.658005349636988868e-01
4.696217042414979059e-01
4.696217042414979059e-01
4.493695070691631765e-01
4.493695070691631765e-01
4.493695070691631765e-01
4.707680550248375950e-01
4.707680550248375950e-01
4.635078333970195086e-01
4.635078333970195086e-01
4.635078333970195086e-01
4.562476117692013666e-01
4.562476117692013666e-01
4.669468857470385759e-01
4.669468857470385759e-01
4.669468857470385759e-01
4.738249904470768215e-01
4.738249904470768215e-01
4.764998089415360960e-01
4.764998089415360960e-01
4.764998089415360960e-01
4.784103935804356333e-01
4.784103935804356333e-01
4.566297286969812630e-01
4.566297286969812630e-01
4.566297286969812630e-01
4.516622086358425547e-01
4.516622086358425547e-01
4.551012609858616775e-01
4.551012609858616775e-01
4.551012609858616775e-01
4.780282766526557370e-01
4.780282766526557370e-01
4.547191440580817812e-01
4.547191440580817812e-01
4.547191440580817812e-01
4.654184180359189904e-01
4.654184180359189904e-01
4.558654948414214703e-01
4.558654948414214703e-01
4.508979747802827620e-01
4.508979747802827620e-01
4.508979747802827620e-01
4.451662208635842610e-01
4.451662208635842610e-01
4.474589224302636392e-01
4.474589224302636392e-01
4.474589224302636392e-01
4.577760794803209521e-01
4.577760794803209521e-01
4.535727932747420921e-01
4.535727932747420921e-01
4.535727932747420921e-01
4.394344669468857600e-01
4.394344669468857600e-01
4.615972487581199712e-01
4.615972487581199712e-01
4.615972487581199712e-01
4.375238823079862227e-01
4.375238823079862227e-01
4.600687810470003858e-01
4.600687810470003858e-01
4.600687810470003858e-01
4.459304547191440538e-01
4.459304547191440538e-01
4.352311807413068445e-01
4.352311807413068445e-01
4.352311807413068445e-01
4.505158578525028656e-01
4.505158578525028656e-01
4.501337409247229693e-01
4.501337409247229693e-01
4.501337409247229693e-01
4.310278945357279290e-01
4.310278945357279290e-01
4.340848299579671554e-01
4.340848299579671554e-01
4.340848299579671554e-01
4.428735192969048273e-01
4.428735192969048273e-01
4.256782575468093244e-01
4.256782575468093244e-01
4.256782575468093244e-01
4.317921283912877217e-01
4.317921283912877217e-01
4.317921283912877217e-01
4.317921283912877217e-01
4.317921283912877217e-01
4.191822697745510307e-01
4.191822697745510307e-01
4.359954145968666372e-01
4.359954145968666372e-01
4.359954145968666372e-01
4.069545280855941805e-01
4.069545280855941805e-01
4.073366450133740768e-01
4.073366450133740768e-01
4.073366450133740768e-01
4.035154757355751132e-01
4.035154757355751132e-01
3.993121895299961976e-01
3.993121895299961976e-01
3.993121895299961976e-01
4.069545280855941805e-01
4.069545280855941805e-01
3.874665647688192438e-01
3.874665647688192438e-01
3.874665647688192438e-01
3.867023309132594511e-01
3.867023309132594511e-01
4.004585403133358867e-01
4.004585403133358867e-01
4.004585403133358867e-01
3.672143675964845144e-01
3.672143675964845144e-01
3.656858998853649290e-01
3.656858998853649290e-01
3.656858998853649290e-01
3.695070691631639481e-01
3.695070691631639481e-01
3.733282384409629118e-01
3.733282384409629118e-01
3.733282384409629118e-01
3.591899121131066352e-01
3.591899121131066352e-01
3.538402751241879751e-01
3.538402751241879751e-01
3.538402751241879751e-01
3.588077951853266834e-01
3.588077951853266834e-01
3.599541459686664280e-01
3.599541459686664280e-01
3.599541459686664280e-01
3.320596102407336603e-01
3.320596102407336603e-01
3.519296904852884933e-01
3.519296904852884933e-01
3.519296904852884933e-01
3.309132594573939712e-01
3.309132594573939712e-01
3.198318685517768656e-01
3.198318685517768656e-01
3.198318685517768656e-01
3.370271303018723685e-01
3.370271303018723685e-01
3.397019487963316986e-01
3.397019487963316986e-01
3.397019487963316986e-01
3.251815055406954702e-01
3.251815055406954702e-01
3.049293083683607408e-01
3.049293083683607408e-01
3.049293083683607408e-01
3.022544898739014108e-01
3.022544898739014108e-01
3.011081390905617217e-01
3.011081390905617217e-01
3.011081390905617217e-01
2.930836836071837870e-01
2.930836836071837870e-01
3.171570500573175355e-01
3.171570500573175355e-01
3.171570500573175355e-01
3.110431792128391382e-01
3.110431792128391382e-01
3.152464654184180537e-01
3.152464654184180537e-01
3.152464654184180537e-01
2.846771111960260114e-01
2.846771111960260114e-01
2.793274742071073513e-01
2.793274742071073513e-01
2.793274742071073513e-01
2.888803974016048715e-01
2.888803974016048715e-01
2.927015666794038906e-01
2.927015666794038906e-01
2.927015666794038906e-01
2.999617883072220326e-01
2.999617883072220326e-01
2.739778372181887467e-01
2.739778372181887467e-01
2.739778372181887467e-01
2.984333205961023916e-01
2.984333205961023916e-01
2.934658005349636833e-01
2.934658005349636833e-01
2.934658005349636833e-01
2.839128773404661632e-01
2.839128773404661632e-01
2.663354986625907639e-01
2.663354986625907639e-01
2.663354986625907639e-01
2.755063049293083877e-01
2.755063049293083877e-01
2.766526557126480768e-01
2.766526557126480768e-01
2.766526557126480768e-01
2.567825754680932437e-01
2.567825754680932437e-01
2.606037447458922629e-01
2.606037447458922629e-01
2.606037447458922629e-01
2.842949942682460596e-01
2.842949942682460596e-01
2.590752770347726219e-01
2.590752770347726219e-01
2.590752770347726219e-01
2.720672525792892649e-01
2.720672525792892649e-01
2.567825754680932437e-01
2.567825754680932437e-01
2.567825754680932437e-01
2.724493695070691612e-01
2.724493695070691612e-01
2.499044707680550259e-01
2.499044707680550259e-01
2.499044707680550259e-01
2.648070309514711229e-01
2.648070309514711229e-01
2.529614061902942246e-01
2.529614061902942246e-01
2.529614061902942246e-01
2.609858616736721593e-01
2.609858616736721593e-01
2.567825754680932437e-01
2.567825754680932437e-01
2.567825754680932437e-01
2.625143293847917447e-01
2.625143293847917447e-01
2.430263660680168081e-01
2.430263660680168081e-01
2.430263660680168081e-01
2.510508215513947428e-01
2.510508215513947428e-01
2.586931601069927256e-01
2.586931601069927256e-01
2.586931601069927256e-01
2.434084829957967044e-01
2.434084829957967044e-01
2.315628582346198061e-01
2.315628582346198061e-01
2.315628582346198061e-01
2.598395108903324147e-01
2.598395108903324147e-01
2.307986243790599856e-01
2.307986243790599856e-01
2.304165074512800893e-01
2.304165074512800893e-01
2.304165074512800893e-01
2.502865876958349500e-01
2.502865876958349500e-01
2.468475353458158272e-01
2.468475353458158272e-01
2.468475353458158272e-01
2.372946121513183071e-01
2.372946121513183071e-01
2.254489873901413810e-01
2.254489873901413810e-01
2.254489873901413810e-01
2.319449751623997025e-01
2.319449751623997025e-01
2.445548337791364213e-01
2.445548337791364213e-01
2.445548337791364213e-01
2.155139472678639645e-01
2.155139472678639645e-01
2.372946121513183071e-01
2.372946121513183071e-01
2.372946121513183071e-01
2.307986243790599856e-01
2.307986243790599856e-01
2.277416889568207869e-01
2.277416889568207869e-01
2.277416889568207869e-01
2.189529996178830595e-01
2.189529996178830595e-01
2.105464272067252562e-01
2.105464272067252562e-01
2.105464272067252562e-01
2.166602980512036813e-01
2.166602980512036813e-01
2.051967902178066516e-01
2.051967902178066516e-01
2.051967902178066516e-01
2.334734428735192879e-01
2.334734428735192879e-01
2.269774551012609942e-01
2.269774551012609942e-01
2.269774551012609942e-01
2.059610240733664444e-01
2.059610240733664444e-01
2.067252579289262648e-01
2.067252579289262648e-01
2.067252579289262648e-01
2.204814673290026728e-01
2.204814673290026728e-01
1.895299961788307341e-01
1.895299961788307341e-01
1.895299961788307341e-01
1.948796331677493388e-01
1.948796331677493388e-01
2.002292701566679434e-01
2.002292701566679434e-01
2.002292701566679434e-01
1.872372946121513282e-01
1.872372946121513282e-01
1.925869316010699328e-01
1.925869316010699328e-01
1.925869316010699328e-01
2.116927779900649731e-01
2.116927779900649731e-01
1.891478792510508100e-01
1.891478792510508100e-01
1.891478792510508100e-01
2.074894917844860576e-01
2.074894917844860576e-01
1.792128391287733935e-01
1.792128391287733935e-01
1.792128391287733935e-01
2.048146732900267553e-01
2.048146732900267553e-01
1.807413068398930067e-01
1.807413068398930067e-01
1.807413068398930067e-01
1.788307222009934971e-01
1.788307222009934971e-01
1.757737867787542985e-01
1.757737867787542985e-01
1.757737867787542985e-01
1.956438670233091315e-01
1.956438670233091315e-01
1.979365685899885374e-01
1.979365685899885374e-01
1.979365685899885374e-01
1.734810852120748925e-01
1.734810852120748925e-01
1.818876576232326958e-01
1.818876576232326958e-01
1.818876576232326958e-01
1.708062667176155902e-01
1.708062667176155902e-01
1.857088269010317150e-01
1.857088269010317150e-01
1.857088269010317150e-01
1.711883836453954866e-01
1.711883836453954866e-01
1.860909438288116113e-01
1.860909438288116113e-01
1.860909438288116113e-01
1.830340084065724127e-01
1.830340084065724127e-01
1.700420328620557975e-01
1.700420328620557975e-01
1.700420328620557975e-01
1.773022544898739117e-01
1.773022544898739117e-01
1.845624761176920259e-01
1.845624761176920259e-01
1.845624761176920259e-01
1.604891096675582773e-01
1.604891096675582773e-01
1.803591899121131104e-01
1.803591899121131104e-01
1.803591899121131104e-01
1.566679403897592582e-01
1.566679403897592582e-01
1.730989682842949962e-01
1.730989682842949962e-01
1.730989682842949962e-01
1.551394726786396727e-01
1.551394726786396727e-01
1.669850974398165711e-01
1.669850974398165711e-01
1.669850974398165711e-01
1.742453190676346853e-01
1.742453190676346853e-01
1.788307222009934971e-01
1.788307222009934971e-01
1.788307222009934971e-01
1.478792510508215585e-01
1.478792510508215585e-01
1.650745128009170892e-01
1.650745128009170892e-01
1.650745128009170892e-01
1.616354604508979664e-01
1.616354604508979664e-01
1.459686664119220489e-01
1.459686664119220489e-01
1.459686664119220489e-01
1.555215896064195691e-01
1.555215896064195691e-01
1.497898356897210681e-01
1.497898356897210681e-01
1.497898356897210681e-01
1.627818112342376833e-01
1.627818112342376833e-01
1.559037065341994654e-01
1.559037065341994654e-01
1.559037065341994654e-01
1.627818112342376833e-01
1.627818112342376833e-01
1.650745128009170892e-01
1.650745128009170892e-01
1.650745128009170892e-01
1.681314482231562879e-01
1.681314482231562879e-01
1.639281620175773724e-01
1.639281620175773724e-01
1.639281620175773724e-01
1.406190294230034443e-01
1.406190294230034443e-01
1.597248758119984846e-01
1.597248758119984846e-01
1.597248758119984846e-01
1.528467711119602668e-01
1.528467711119602668e-01
1.459686664119220489e-01
1.459686664119220489e-01
1.459686664119220489e-01
1.585785250286587678e-01
1.585785250286587678e-01
1.616354604508979664e-01
1.616354604508979664e-01
1.616354604508979664e-01
1.345051585785250192e-01
1.345051585785250192e-01
1.356515093618647361e-01
1.356515093618647361e-01
1.356515093618647361e-01
1.467329002674818417e-01
1.467329002674818417e-01
1.306839893007260278e-01
1.306839893007260278e-01
1.306839893007260278e-01
1.440580817730225394e-01
1.440580817730225394e-01
1.318303400840657169e-01
1.318303400840657169e-01
1.318303400840657169e-01
1.406190294230034443e-01
1.406190294230034443e-01
1.371799770729843215e-01
1.371799770729843215e-01
1.371799770729843215e-01
1.325945739396255374e-01
1.325945739396255374e-01
1.325945739396255374e-01
1.325945739396255374e-01
1.551394726786396727e-01
1.551394726786396727e-01
1.551394726786396727e-01
1.329766908674054338e-01
1.329766908674054338e-01
1.291555215896064146e-01
1.291555215896064146e-01
1.291555215896064146e-01
1.459686664119220489e-01
1.459686664119220489e-01
1.299197554451662073e-01
1.299197554451662073e-01
1.299197554451662073e-01
1.241880015284677063e-01
1.241880015284677063e-01
1.440580817730225394e-01
1.440580817730225394e-01
1.440580817730225394e-01
1.360336262896446324e-01
1.360336262896446324e-01
1.360336262896446324e-01
1.360336262896446324e-01
1.360336262896446324e-01
1.249522353840275130e-01
1.249522353840275130e-01
1.432938479174627466e-01
1.432938479174627466e-01
1.432938479174627466e-01
1.524646541841803704e-01
1.524646541841803704e-01
1.325945739396255374e-01
1.325945739396255374e-01
1.325945739396255374e-01
1.245701184562476166e-01
1.245701184562476166e-01
1.394726786396637275e-01
1.394726786396637275e-01
1.394726786396637275e-01
1.455865494841421526e-01
1.455865494841421526e-01
1.478792510508215585e-01
1.478792510508215585e-01
1.478792510508215585e-01
1.199847153228888047e-01
1.199847153228888047e-01
1.360336262896446324e-01
1.360336262896446324e-01
1.360336262896446324e-01
1.287734046618265182e-01
1.287734046618265182e-01
1.436759648452426430e-01
1.436759648452426430e-01
1.436759648452426430e-01
1.180741306839892951e-01
1.180741306839892951e-01
1.226595338173481070e-01
1.226595338173481070e-01
1.226595338173481070e-01
1.425296140619029539e-01
1.425296140619029539e-01
1.211310661062285077e-01
1.211310661062285077e-01
1.211310661062285077e-01
1.173098968284295024e-01
1.173098968284295024e-01
1.379442109285441420e-01
1.379442109285441420e-01
1.379442109285441420e-01
1.146350783339702001e-01
1.146350783339702001e-01
1.199847153228888047e-01
1.199847153228888047e-01
1.199847153228888047e-01
1.333588077951853301e-01
1.333588077951853301e-01
1.390905617118838311e-01
1.390905617118838311e-01
1.390905617118838311e-01
1.283912877340466219e-01
1.283912877340466219e-01
1.383263278563240384e-01
1.383263278563240384e-01
1.383263278563240384e-01
1.402369124952235480e-01
1.402369124952235480e-01
1.272449369507069050e-01
1.272449369507069050e-01
1.272449369507069050e-01
1.203668322506687011e-01
1.203668322506687011e-01
1.276270538784868291e-01
1.276270538784868291e-01
1.276270538784868291e-01
1.314482231562858205e-01
1.314482231562858205e-01
1.318303400840657169e-01
1.318303400840657169e-01
1.318303400840657169e-01
1.276270538784868291e-01
1.276270538784868291e-01
1.157814291173099031e-01
1.157814291173099031e-01
1.157814291173099031e-01
1.367978601452044252e-01
1.367978601452044252e-01
1.111960259839510912e-01
1.111960259839510912e-01
1.111960259839510912e-01
1.410011463507833407e-01
1.410011463507833407e-01
1.096675582728314918e-01
1.096675582728314918e-01
1.096675582728314918e-01
1.352693924340848397e-01
1.352693924340848397e-01
1.341230416507451229e-01
1.341230416507451229e-01
1.341230416507451229e-01
1.085212074894917889e-01
1.085212074894917889e-01
1.108139090561711948e-01
1.108139090561711948e-01
1.108139090561711948e-01
1.108139090561711948e-01
1.108139090561711948e-01
1.043179212839128733e-01
1.043179212839128733e-01
1.043179212839128733e-01
1.325945739396255374e-01
1.325945739396255374e-01
1.318303400840657169e-01
1.318303400840657169e-01
1.318303400840657169e-01
1.322124570118456133e-01
1.322124570118456133e-01
1.173098968284295024e-01
1.173098968284295024e-01
1.173098968284295024e-01
1.306839893007260278e-01
1.306839893007260278e-01
1.081390905617118786e-01
1.081390905617118786e-01
1.081390905617118786e-01
1.058463889950324865e-01
1.058463889950324865e-01
1.215131830340084040e-01
1.215131830340084040e-01
1.215131830340084040e-01
1.073748567061520859e-01
1.073748567061520859e-01
1.146350783339702001e-01
1.146350783339702001e-01
1.146350783339702001e-01
1.100496752006113882e-01
1.100496752006113882e-01
1.073748567061520859e-01
1.073748567061520859e-01
1.073748567061520859e-01
1.196025983951089083e-01
1.196025983951089083e-01
1.027894535727932740e-01
1.027894535727932740e-01
1.027894535727932740e-01
1.303018723729461315e-01
1.303018723729461315e-01
9.820405043943446211e-02
9.820405043943446211e-02
9.820405043943446211e-02
1.245701184562476166e-01
1.245701184562476166e-01
1.253343523118074232e-01
1.253343523118074232e-01
1.253343523118074232e-01
9.782193351165456574e-02
9.782193351165456574e-02
1.272449369507069050e-01
1.272449369507069050e-01
1.272449369507069050e-01
1.138708444784103935e-01
1.138708444784103935e-01
1.031715705005731704e-01
1.031715705005731704e-01
1.031715705005731704e-01
1.169277799006495921e-01
1.169277799006495921e-01
1.253343523118074232e-01
1.253343523118074232e-01
1.253343523118074232e-01
1.108139090561711948e-01
1.108139090561711948e-01
1.092854413450515816e-01
1.092854413450515816e-01
1.092854413450515816e-01
1.360336262896446324e-01
1.360336262896446324e-01
1.314482231562858205e-01
1.314482231562858205e-01
1.314482231562858205e-01
1.264807030951471123e-01
1.264807030951471123e-01
1.283912877340466219e-01
1.283912877340466219e-01
1.283912877340466219e-01
1.367978601452044252e-01
1.367978601452044252e-01
1.455865494841421526e-01
1.455865494841421526e-01
1.776843714176538080e-01
1.776843714176538080e-01
1.776843714176538080e-01
1.864730607565915077e-01
1.864730607565915077e-01
1.696599159342759011e-01
1.696599159342759011e-01
1.696599159342759011e-01
2.063431410011463407e-01
2.063431410011463407e-01
1.914405808177302160e-01
1.914405808177302160e-01
1.914405808177302160e-01
2.120748949178448695e-01
2.120748949178448695e-01
2.101643102789453599e-01
2.101643102789453599e-01
2.101643102789453599e-01
2.239205196790217678e-01
2.239205196790217678e-01
2.548719908291937064e-01
2.548719908291937064e-01
2.548719908291937064e-01
2.518150554069545355e-01
2.518150554069545355e-01
2.728314864348490576e-01
2.728314864348490576e-01
2.728314864348490576e-01
2.583110431792128292e-01
2.583110431792128292e-01
2.724493695070691612e-01
2.724493695070691612e-01
2.724493695070691612e-01
2.965227359572029098e-01
2.965227359572029098e-01
3.148643484906381573e-01
3.148643484906381573e-01
3.148643484906381573e-01
3.221245701184562438e-01
3.221245701184562438e-01
3.332059610240733494e-01
3.332059610240733494e-01
3.332059610240733494e-01
3.366450133740924722e-01
3.366450133740924722e-01
3.244172716851356775e-01
3.244172716851356775e-01
3.244172716851356775e-01
3.519296904852884933e-01
3.519296904852884933e-01
3.496369889186091151e-01
3.496369889186091151e-01
3.496369889186091151e-01
3.500191058463890115e-01
3.500191058463890115e-01
3.526939243408482860e-01
3.526939243408482860e-01
3.526939243408482860e-01
3.695070691631639481e-01
3.695070691631639481e-01
3.710355368742835336e-01
3.710355368742835336e-01
3.710355368742835336e-01
3.893771494077187811e-01
3.893771494077187811e-01
3.714176538020634299e-01
3.714176538020634299e-01
3.714176538020634299e-01
3.897592663354986775e-01
3.897592663354986775e-01
3.824990447076805355e-01
3.824990447076805355e-01
3.824990447076805355e-01
3.935804356132976967e-01
3.935804356132976967e-01
3.886129155521589329e-01
3.886129155521589329e-01
3.886129155521589329e-01
4.031333588077951613e-01
4.031333588077951613e-01
3.993121895299961976e-01
3.993121895299961976e-01
3.993121895299961976e-01
4.111578142911730960e-01
4.111578142911730960e-01
4.188001528467711343e-01
4.188001528467711343e-01
4.188001528467711343e-01
4.165074512800917006e-01
4.165074512800917006e-01
4.145968666411922188e-01
4.145968666411922188e-01
4.145968666411922188e-01
4.302636606801681363e-01
4.302636606801681363e-01
4.237676729079098426e-01
4.237676729079098426e-01
4.237676729079098426e-01
4.363775315246465336e-01
4.363775315246465336e-01
4.252961406190294280e-01
4.252961406190294280e-01
4.252961406190294280e-01
4.199465036301108234e-01
4.199465036301108234e-01
4.451662208635842610e-01
4.451662208635842610e-01
4.451662208635842610e-01
4.337027130301872591e-01
4.337027130301872591e-01
4.375238823079862227e-01
4.375238823079862227e-01
4.375238823079862227e-01
4.283530760412686544e-01
4.283530760412686544e-01
4.226213221245700979e-01
4.226213221245700979e-01
4.226213221245700979e-01
4.256782575468093244e-01
4.256782575468093244e-01
4.466946885747038465e-01
4.466946885747038465e-01
4.466946885747038465e-01
4.428735192969048273e-01
4.428735192969048273e-01
4.390523500191058637e-01
4.390523500191058637e-01
4.390523500191058637e-01
4.371417653802063263e-01
4.371417653802063263e-01
4.463125716469239501e-01
4.463125716469239501e-01
4.463125716469239501e-01
4.367596484524264300e-01
4.367596484524264300e-01
4.401987008024455528e-01
4.401987008024455528e-01
4.401987008024455528e-01
4.589224302636606967e-01
4.589224302636606967e-01
4.543370271303018848e-01
4.543370271303018848e-01
4.543370271303018848e-01
4.570118456247611594e-01
4.570118456247611594e-01
4.405808177302254491e-01
4.405808177302254491e-01
4.405808177302254491e-01
4.489873901413832802e-01
4.489873901413832802e-01
4.352311807413068445e-01
4.352311807413068445e-01
4.352311807413068445e-01
4.627435995414596603e-01
4.627435995414596603e-01
4.501337409247229693e-01
4.501337409247229693e-01
4.501337409247229693e-01
4.482231562858234875e-01
4.482231562858234875e-01
4.596866641192204894e-01
4.596866641192204894e-01
4.596866641192204894e-01
4.608330149025601785e-01
4.608330149025601785e-01
4.596866641192204894e-01
4.596866641192204894e-01
4.596866641192204894e-01
4.512800917080626584e-01
4.512800917080626584e-01
4.608330149025601785e-01
4.608330149025601785e-01
4.608330149025601785e-01
4.466946885747038465e-01
4.466946885747038465e-01
4.466946885747038465e-01
4.466946885747038465e-01
4.466946885747038465e-01
4.455483377913641574e-01
4.455483377913641574e-01
4.570118456247611594e-01
4.570118456247611594e-01
4.570118456247611594e-01
4.325563622468475145e-01
4.325563622468475145e-01
4.558654948414214703e-01
4.558654948414214703e-01
4.558654948414214703e-01
4.501337409247229693e-01
4.501337409247229693e-01
4.482231562858234875e-01
4.482231562858234875e-01
4.482231562858234875e-01
4.436377531524646756e-01
4.436377531524646756e-01
4.363775315246465336e-01
4.363775315246465336e-01
4.363775315246465336e-01
4.340848299579671554e-01
4.340848299579671554e-01
4.363775315246465336e-01
4.363775315246465336e-01
4.344669468857470518e-01
4.344669468857470518e-01
4.344669468857470518e-01
4.390523500191058637e-01
4.390523500191058637e-01
4.379059992357661191e-01
4.379059992357661191e-01
4.379059992357661191e-01
4.317921283912877217e-01
4.317921283912877217e-01
4.375238823079862227e-01
4.375238823079862227e-01
4.375238823079862227e-01
4.379059992357661191e-01
4.379059992357661191e-01
4.283530760412686544e-01
4.283530760412686544e-01
4.283530760412686544e-01
4.344669468857470518e-01
4.344669468857470518e-01
4.268246083301490135e-01
4.268246083301490135e-01
4.268246083301490135e-01
4.103935804356133032e-01
4.103935804356133032e-01
3.985479556744364049e-01
3.985479556744364049e-01
3.985479556744364049e-01
4.081008788689338695e-01
4.081008788689338695e-01
4.165074512800917006e-01
4.165074512800917006e-01
4.165074512800917006e-01
3.939625525410775930e-01
3.939625525410775930e-01
4.019870080244554722e-01
4.019870080244554722e-01
4.019870080244554722e-01
4.073366450133740768e-01
4.073366450133740768e-01
4.046618265189148023e-01
4.046618265189148023e-01
4.046618265189148023e-01
4.019870080244554722e-01
4.019870080244554722e-01
3.744745892243026564e-01
3.744745892243026564e-01
3.744745892243026564e-01
3.706534199465036372e-01
3.706534199465036372e-01
3.771494077187619309e-01
3.771494077187619309e-01
3.771494077187619309e-01
3.798242262132212610e-01
3.798242262132212610e-01
3.802063431410011574e-01
3.802063431410011574e-01
3.802063431410011574e-01
3.496369889186091151e-01
3.496369889186091151e-01
3.473442873519296814e-01
3.473442873519296814e-01
3.473442873519296814e-01
3.614826136797860134e-01
3.614826136797860134e-01
3.557508597630875125e-01
3.557508597630875125e-01
3.557508597630875125e-01
3.519296904852884933e-01
3.519296904852884933e-01
3.270920901795949520e-01
3.270920901795949520e-01
3.270920901795949520e-01
3.217424531906763474e-01
3.217424531906763474e-01
3.240351547573557256e-01
3.240351547573557256e-01
3.240351547573557256e-01
3.163928162017577428e-01
3.163928162017577428e-01
3.209782193351165547e-01
3.209782193351165547e-01
3.209782193351165547e-01
3.102789453572793454e-01
3.102789453572793454e-01
3.030187237294612035e-01
3.030187237294612035e-01
3.030187237294612035e-01
3.228888039740160365e-01
3.228888039740160365e-01
2.965227359572029098e-01
2.965227359572029098e-01
2.965227359572029098e-01
3.152464654184180537e-01
3.152464654184180537e-01
3.026366068016813071e-01
3.026366068016813071e-01
3.026366068016813071e-01
2.877340466182651824e-01
2.877340466182651824e-01
2.869698127627053896e-01
2.869698127627053896e-01
2.869698127627053896e-01
2.988154375238822880e-01
2.988154375238822880e-01
3.053114252961406372e-01
3.053114252961406372e-01
3.053114252961406372e-01
2.896446312571647197e-01
2.896446312571647197e-01
3.007260221627818253e-01
3.007260221627818253e-01
3.007260221627818253e-01
2.900267481849446161e-01
2.900267481849446161e-01
2.751241880015284913e-01
2.751241880015284913e-01
2.751241880015284913e-01
2.831486434849063705e-01
2.831486434849063705e-01
2.659533817348108675e-01
2.659533817348108675e-01
2.659533817348108675e-01
2.674818494459304530e-01
2.674818494459304530e-01
2.888803974016048715e-01
2.888803974016048715e-01
2.888803974016048715e-01
2.628964463125716411e-01
2.628964463125716411e-01
2.648070309514711229e-01
2.648070309514711229e-01
2.648070309514711229e-01
2.785632403515475586e-01
2.785632403515475586e-01
2.709209017959495758e-01
2.709209017959495758e-01
2.709209017959495758e-01
2.552541077569736583e-01
2.552541077569736583e-01
2.797095911348873032e-01
2.797095911348873032e-01
2.797095911348873032e-01
2.632785632403515375e-01
2.632785632403515375e-01
2.621322124570118484e-01
2.621322124570118484e-01
2.621322124570118484e-01
2.571646923958731401e-01
2.571646923958731401e-01
2.571646923958731401e-01
2.571646923958731401e-01
2.571646923958731401e-01
2.651891478792510748e-01
2.651891478792510748e-01
2.674818494459304530e-01
2.674818494459304530e-01
2.674818494459304530e-01
2.521971723347344319e-01
2.521971723347344319e-01
2.575468093236530365e-01
2.575468093236530365e-01
2.575468093236530365e-01
2.598395108903324147e-01
2.598395108903324147e-01
2.472296522735957236e-01
2.472296522735957236e-01
2.472296522735957236e-01
2.437905999235766008e-01
2.437905999235766008e-01
2.392051967902178167e-01
2.392051967902178167e-01
2.392051967902178167e-01
2.353840275124187975e-01
2.353840275124187975e-01
2.434084829957967044e-01
2.434084829957967044e-01
2.434084829957967044e-01
2.476117692013756200e-01
2.476117692013756200e-01
2.353840275124187975e-01
2.353840275124187975e-01
2.353840275124187975e-01
2.307986243790599856e-01
2.307986243790599856e-01
2.395873137179977130e-01
2.395873137179977130e-01
2.395873137179977130e-01
2.399694306457776094e-01
2.399694306457776094e-01
2.239205196790217678e-01
2.239205196790217678e-01
2.239205196790217678e-01
2.491402369124952332e-01
2.491402369124952332e-01
2.311807413068398820e-01
2.311807413068398820e-01
2.311807413068398820e-01
2.239205196790217678e-01
2.239205196790217678e-01
2.181887657623232668e-01
2.181887657623232668e-01
2.239205196790217678e-01
2.239205196790217678e-01
2.239205196790217678e-01
2.178066488345433704e-01
2.178066488345433704e-01
2.330913259457393916e-01
2.330913259457393916e-01
2.330913259457393916e-01
2.269774551012609942e-01
2.269774551012609942e-01
2.216278181123423896e-01
2.216278181123423896e-01
2.216278181123423896e-01
2.319449751623997025e-01
2.319449751623997025e-01
2.288880397401604760e-01
2.288880397401604760e-01
2.288880397401604760e-01
2.074894917844860576e-01
2.074894917844860576e-01
2.246847535345815883e-01
2.246847535345815883e-01
2.246847535345815883e-01
2.250668704623614846e-01
2.250668704623614846e-01
2.220099350401222860e-01
2.220099350401222860e-01
2.220099350401222860e-01
2.200993504012227764e-01
2.200993504012227764e-01
2.059610240733664444e-01
2.059610240733664444e-01
2.059610240733664444e-01
1.975544516622086411e-01
1.975544516622086411e-01
2.025219717233473493e-01
2.025219717233473493e-01
2.025219717233473493e-01
2.147497134123041718e-01
2.147497134123041718e-01
1.975544516622086411e-01
1.975544516622086411e-01
1.975544516622086411e-01
1.979365685899885374e-01
1.979365685899885374e-01
1.979365685899885374e-01
1.979365685899885374e-01
1.979365685899885374e-01
2.055789071455865480e-01
2.055789071455865480e-01
1.834161253343523090e-01
1.834161253343523090e-01
1.834161253343523090e-01
1.933511654566297255e-01
1.933511654566297255e-01
1.937332823844096219e-01
1.937332823844096219e-01
1.937332823844096219e-01
1.899121131066106305e-01
1.899121131066106305e-01
1.998471532288880470e-01
1.998471532288880470e-01
1.998471532288880470e-01
1.971723347344287447e-01
1.971723347344287447e-01
1.975544516622086411e-01
1.975544516622086411e-01
1.975544516622086411e-01
1.887657623232709136e-01
1.887657623232709136e-01
1.952617500955292351e-01
1.952617500955292351e-01
1.952617500955292351e-01
1.799770729843332140e-01
1.799770729843332140e-01
1.914405808177302160e-01
1.914405808177302160e-01
1.914405808177302160e-01
1.922048146732900364e-01
1.922048146732900364e-01
1.788307222009934971e-01
1.788307222009934971e-01
1.788307222009934971e-01
1.887657623232709136e-01
1.887657623232709136e-01
1.818876576232326958e-01
1.818876576232326958e-01
1.818876576232326958e-01
1.815055406954527994e-01
1.815055406954527994e-01
1.688956820787160806e-01
1.688956820787160806e-01
1.688956820787160806e-01
1.677493312953763915e-01
1.677493312953763915e-01
1.853267099732518186e-01
1.853267099732518186e-01
1.853267099732518186e-01
1.620175773786778628e-01
1.620175773786778628e-01
1.627818112342376833e-01
1.627818112342376833e-01
1.627818112342376833e-01
1.742453190676346853e-01
1.742453190676346853e-01
1.757737867787542985e-01
1.757737867787542985e-01
1.757737867787542985e-01
1.643102789453572687e-01
1.643102789453572687e-01
1.517004203286205499e-01
1.517004203286205499e-01
1.517004203286205499e-01
1.570500573175391545e-01
1.570500573175391545e-01
1.612533435231180701e-01
1.612533435231180701e-01
1.612533435231180701e-01
1.753916698509744021e-01
1.753916698509744021e-01
1.681314482231562879e-01
1.681314482231562879e-01
1.681314482231562879e-01
1.566679403897592582e-01
1.566679403897592582e-01
1.608712265953381737e-01
1.608712265953381737e-01
1.608712265953381737e-01
1.708062667176155902e-01
1.708062667176155902e-01
1.559037065341994654e-01
1.559037065341994654e-01
1.559037065341994654e-01
1.444401987008024357e-01
1.444401987008024357e-01
1.673672143675964952e-01
1.673672143675964952e-01
1.673672143675964952e-01
1.474971341230416622e-01
1.474971341230416622e-01
1.452044325563622562e-01
1.452044325563622562e-01
1.452044325563622562e-01
1.421474971341230298e-01
1.421474971341230298e-01
1.685135651509361843e-01
1.685135651509361843e-01
1.685135651509361843e-01
1.593427588842185605e-01
1.593427588842185605e-01
1.555215896064195691e-01
1.555215896064195691e-01
1.555215896064195691e-01
1.635460450897974760e-01
1.635460450897974760e-01
1.459686664119220489e-01
1.459686664119220489e-01
1.459686664119220489e-01
1.562858234619793618e-01
1.562858234619793618e-01
1.325945739396255374e-01
1.325945739396255374e-01
1.325945739396255374e-01
1.517004203286205499e-01
1.517004203286205499e-01
1.639281620175773724e-01
1.639281620175773724e-01
1.639281620175773724e-01
1.555215896064195691e-01
1.555215896064195691e-01
1.333588077951853301e-01
1.333588077951853301e-01
1.333588077951853301e-01
1.452044325563622562e-01
1.452044325563622562e-01
1.333588077951853301e-01
1.333588077951853301e-01
1.333588077951853301e-01
1.387084447841039347e-01
1.387084447841039347e-01
1.559037065341994654e-01
1.559037065341994654e-01
1.559037065341994654e-01
1.352693924340848397e-01
1.352693924340848397e-01
1.486434849063813513e-01
1.486434849063813513e-01
1.486434849063813513e-01
1.429117309896828503e-01
1.429117309896828503e-01
1.303018723729461315e-01
1.303018723729461315e-01
1.303018723729461315e-01
1.318303400840657169e-01
1.318303400840657169e-01
1.482613679786014549e-01
1.482613679786014549e-01
1.482613679786014549e-01
1.356515093618647361e-01
1.356515093618647361e-01
1.264807030951471123e-01
1.264807030951471123e-01
1.264807030951471123e-01
1.310661062285059242e-01
1.310661062285059242e-01
1.536110049675200595e-01
1.536110049675200595e-01
1.245701184562476166e-01
1.245701184562476166e-01
1.245701184562476166e-01
1.318303400840657169e-01
1.318303400840657169e-01
1.524646541841803704e-01
1.524646541841803704e-01
1.524646541841803704e-01
1.234237676729079136e-01
1.234237676729079136e-01
1.238058846006878100e-01
1.238058846006878100e-01
1.238058846006878100e-01
1.448223156285823598e-01
1.448223156285823598e-01
1.440580817730225394e-01
1.440580817730225394e-01
1.440580817730225394e-01
1.474971341230416622e-01
1.474971341230416622e-01
1.390905617118838311e-01
1.390905617118838311e-01
1.390905617118838311e-01
1.325945739396255374e-01
1.325945739396255374e-01
1.291555215896064146e-01
1.291555215896064146e-01
1.291555215896064146e-01
1.218952999617883004e-01
1.218952999617883004e-01
1.230416507451280034e-01
1.230416507451280034e-01
1.230416507451280034e-01
1.291555215896064146e-01
1.291555215896064146e-01
1.325945739396255374e-01
1.325945739396255374e-01
1.325945739396255374e-01
1.188383645395491017e-01
1.188383645395491017e-01
1.260985861673672159e-01
1.260985861673672159e-01
1.260985861673672159e-01
1.180741306839892951e-01
1.180741306839892951e-01
1.218952999617883004e-01
1.218952999617883004e-01
1.218952999617883004e-01
1.188383645395491017e-01
1.188383645395491017e-01
1.161635460450897994e-01
1.161635460450897994e-01
1.161635460450897994e-01
1.410011463507833407e-01
1.410011463507833407e-01
1.303018723729461315e-01
1.303018723729461315e-01
1.303018723729461315e-01
1.295376385173863110e-01
1.295376385173863110e-01
1.211310661062285077e-01
1.211310661062285077e-01
1.211310661062285077e-01
1.440580817730225394e-01
1.440580817730225394e-01
1.150171952617500964e-01
1.150171952617500964e-01
1.150171952617500964e-01
1.142529614061902898e-01
1.142529614061902898e-01
1.199847153228888047e-01
1.199847153228888047e-01
1.199847153228888047e-01
1.146350783339702001e-01
1.146350783339702001e-01
1.196025983951089083e-01
1.196025983951089083e-01
1.196025983951089083e-01
1.310661062285059242e-01
1.310661062285059242e-01
1.341230416507451229e-01
1.341230416507451229e-01
1.341230416507451229e-01
1.207489491784486113e-01
1.207489491784486113e-01
1.253343523118074232e-01
1.253343523118074232e-01
1.253343523118074232e-01
1.230416507451280034e-01
1.230416507451280034e-01
1.379442109285441420e-01
1.379442109285441420e-01
1.379442109285441420e-01
1.092854413450515816e-01
1.092854413450515816e-01
1.127244936950706905e-01
1.127244936950706905e-01
1.127244936950706905e-01
1.364157432174245288e-01
1.364157432174245288e-01
1.142529614061902898e-01
1.142529614061902898e-01
1.142529614061902898e-01
1.306839893007260278e-01
1.306839893007260278e-01
1.196025983951089083e-01
1.196025983951089083e-01
1.196025983951089083e-01
1.268628200229270087e-01
1.268628200229270087e-01
1.104317921283912846e-01
1.104317921283912846e-01
1.104317921283912846e-01
1.215131830340084040e-01
1.215131830340084040e-01
1.081390905617118786e-01
1.081390905617118786e-01
1.081390905617118786e-01
1.192204814673289981e-01
1.192204814673289981e-01
1.306839893007260278e-01
1.306839893007260278e-01
1.306839893007260278e-01
1.348872755063049156e-01
1.348872755063049156e-01
1.077569736339319822e-01
1.077569736339319822e-01
1.077569736339319822e-01
1.230416507451280034e-01
1.230416507451280034e-01
1.291555215896064146e-01
1.291555215896064146e-01
1.291555215896064146e-01
1.333588077951853301e-01
1.333588077951853301e-01
1.016431027894535710e-01
1.016431027894535710e-01
1.016431027894535710e-01
1.211310661062285077e-01
1.211310661062285077e-01
1.257164692395873196e-01
1.257164692395873196e-01
1.257164692395873196e-01
1.276270538784868291e-01
1.276270538784868291e-01
1.131066106228505869e-01
1.131066106228505869e-01
1.131066106228505869e-01
1.245701184562476166e-01
1.245701184562476166e-01
1.085212074894917889e-01
1.085212074894917889e-01
1.085212074894917889e-01
1.058463889950324865e-01
1.058463889950324865e-01
1.108139090561711948e-01
1.108139090561711948e-01
1.108139090561711948e-01
1.123423767672907941e-01
1.123423767672907941e-01
1.081390905617118786e-01
1.081390905617118786e-01
1.081390905617118786e-01
1.238058846006878100e-01
1.238058846006878100e-01
1.153993121895299928e-01
1.153993121895299928e-01
1.153993121895299928e-01
1.333588077951853301e-01
1.333588077951853301e-01
1.245701184562476166e-01
1.245701184562476166e-01
1.245701184562476166e-01
1.425296140619029539e-01
1.425296140619029539e-01
1.341230416507451229e-01
1.341230416507451229e-01
1.341230416507451229e-01
1.352693924340848397e-01
1.352693924340848397e-01
1.459686664119220489e-01
1.459686664119220489e-01
1.459686664119220489e-01
1.471150171952617380e-01
1.471150171952617380e-01
1.513183034008406536e-01
1.513183034008406536e-01
1.513183034008406536e-01
1.730989682842949962e-01
1.730989682842949962e-01
1.677493312953763915e-01
1.677493312953763915e-01
1.677493312953763915e-01
1.967902178066488483e-01
1.967902178066488483e-01
2.006113870844478397e-01
2.006113870844478397e-01
2.006113870844478397e-01
1.952617500955292351e-01
1.952617500955292351e-01
2.040504394344669348e-01
2.040504394344669348e-01
2.430263660680168081e-01
2.430263660680168081e-01
2.430263660680168081e-01
2.434084829957967044e-01
2.434084829957967044e-01
2.560183416125334510e-01
2.560183416125334510e-01
2.560183416125334510e-01
2.755063049293083877e-01
2.755063049293083877e-01
2.579289262514329328e-01
2.579289262514329328e-01
2.579289262514329328e-01
2.846771111960260114e-01
2.846771111960260114e-01
3.026366068016813071e-01
3.026366068016813071e-01
3.026366068016813071e-01
2.835307604126862668e-01
2.835307604126862668e-01
3.263278563240351593e-01
3.263278563240351593e-01
3.263278563240351593e-01
3.351165456629728867e-01
3.351165456629728867e-01
3.427588842185708695e-01
3.427588842185708695e-01
3.427588842185708695e-01
3.236530378295758292e-01
3.236530378295758292e-01
3.431410011463507659e-01
3.431410011463507659e-01
3.431410011463507659e-01
3.576614444019869943e-01
3.576614444019869943e-01
3.458158196408100959e-01
3.458158196408100959e-01
3.458158196408100959e-01
3.767672907909820346e-01
3.767672907909820346e-01
3.832632785632403283e-01
3.832632785632403283e-01
3.832632785632403283e-01
3.882307986243790365e-01
3.882307986243790365e-01
3.760030569354222418e-01
3.760030569354222418e-01
3.760030569354222418e-01
3.935804356132976967e-01
3.935804356132976967e-01
3.855559801299197620e-01
3.855559801299197620e-01
3.855559801299197620e-01
3.935804356132976967e-01
3.935804356132976967e-01
4.130683989300725778e-01
4.130683989300725778e-01
4.130683989300725778e-01
4.149789835689721151e-01
4.149789835689721151e-01
4.050439434466946986e-01
4.050439434466946986e-01
4.050439434466946986e-01
4.084829957967138214e-01
4.084829957967138214e-01
4.241497898356897389e-01
4.241497898356897389e-01
4.241497898356897389e-01
4.352311807413068445e-01
4.352311807413068445e-01
4.111578142911730960e-01
4.111578142911730960e-01
4.111578142911730960e-01
4.291173098968284472e-01
