3.274742071073748484e-01
3.274742071073748484e-01
3.274742071073748484e-01
3.221245701184562438e-01
3.221245701184562438e-01
3.171570500573175355e-01
3.171570500573175355e-01
3.171570500573175355e-01
3.114252961406190345e-01
3.114252961406190345e-01
3.011081390905617217e-01
3.011081390905617217e-01
3.011081390905617217e-01
3.121895299961788273e-01
3.121895299961788273e-01
3.076041268628200154e-01
3.076041268628200154e-01
3.076041268628200154e-01
3.106610622850592418e-01
3.106610622850592418e-01
2.980512036683224952e-01
2.980512036683224952e-01
2.980512036683224952e-01
3.018723729461215144e-01
3.018723729461215144e-01
3.003439052350019289e-01
3.003439052350019289e-01
2.942300343905234761e-01
2.942300343905234761e-01
2.942300343905234761e-01
2.816201757737867850e-01
2.816201757737867850e-01
2.839128773404661632e-01
2.839128773404661632e-01
2.839128773404661632e-01
2.877340466182651824e-01
2.877340466182651824e-01
2.793274742071073513e-01
2.793274742071073513e-01
2.793274742071073513e-01
2.755063049293083877e-01
2.755063049293083877e-01
2.716851356515093685e-01
2.716851356515093685e-01
2.716851356515093685e-01
2.751241880015284913e-01
2.751241880015284913e-01
2.709209017959495758e-01
2.709209017959495758e-01
2.709209017959495758e-01
2.678639663737103493e-01
2.678639663737103493e-01
2.758884218570882840e-01
2.758884218570882840e-01
2.758884218570882840e-01
2.735957202904088503e-01
2.735957202904088503e-01
2.579289262514329328e-01
2.579289262514329328e-01
2.579289262514329328e-01
2.632785632403515375e-01
2.632785632403515375e-01
2.586931601069927256e-01
2.586931601069927256e-01
2.586931601069927256e-01
2.602216278181123665e-01
2.602216278181123665e-01
2.659533817348108675e-01
2.659533817348108675e-01
2.659533817348108675e-01
2.525792892625143282e-01
2.525792892625143282e-01
2.586931601069927256e-01
2.586931601069927256e-01
2.586931601069927256e-01
2.464654184180359309e-01
2.464654184180359309e-01
2.586931601069927256e-01
2.586931601069927256e-01
2.586931601069927256e-01
2.571646923958731401e-01
2.571646923958731401e-01
2.476117692013756200e-01
2.476117692013756200e-01
2.476117692013756200e-01
2.537256400458540173e-01
2.537256400458540173e-01
2.380588460068780998e-01
2.380588460068780998e-01
2.380588460068780998e-01
2.544898739014138100e-01
2.544898739014138100e-01
2.464654184180359309e-01
2.464654184180359309e-01
2.464654184180359309e-01
2.437905999235766008e-01
2.437905999235766008e-01
2.414978983568972226e-01
2.414978983568972226e-01
2.414978983568972226e-01
2.422621322124570153e-01
2.422621322124570153e-01
2.491402369124952332e-01
2.491402369124952332e-01
2.491402369124952332e-01
2.376767290790982035e-01
2.376767290790982035e-01
2.296522735957202965e-01
2.296522735957202965e-01
2.296522735957202965e-01
2.411157814291172985e-01
2.411157814291172985e-01
2.227741688956820787e-01
2.227741688956820787e-01
2.227741688956820787e-01
2.307986243790599856e-01
2.307986243790599856e-01
2.189529996178830595e-01
2.189529996178830595e-01
2.189529996178830595e-01
2.235384027512418714e-01
2.235384027512418714e-01
2.311807413068398820e-01
2.311807413068398820e-01
2.311807413068398820e-01
2.281238058846006833e-01
2.281238058846006833e-01
2.319449751623997025e-01
2.319449751623997025e-01
2.319449751623997025e-01
2.258311043179212774e-01
2.258311043179212774e-01
2.265953381734810979e-01
2.265953381734810979e-01
2.265953381734810979e-01
2.296522735957202965e-01
2.296522735957202965e-01
2.101643102789453599e-01
2.101643102789453599e-01
2.101643102789453599e-01
2.212457011845624655e-01
2.212457011845624655e-01
2.113106610622850490e-01
2.113106610622850490e-01
2.113106610622850490e-01
2.231562858234619751e-01
2.231562858234619751e-01
2.044325563622468589e-01
2.044325563622468589e-01
2.044325563622468589e-01
2.162781811234237572e-01
2.162781811234237572e-01
2.032862055789071420e-01
2.032862055789071420e-01
2.032862055789071420e-01
2.113106610622850490e-01
2.113106610622850490e-01
2.067252579289262648e-01
2.067252579289262648e-01
2.067252579289262648e-01
2.025219717233473493e-01
2.025219717233473493e-01
2.071073748567061612e-01
2.071073748567061612e-01
2.071073748567061612e-01
1.979365685899885374e-01
1.979365685899885374e-01
1.990829193733282265e-01
1.990829193733282265e-01
1.990829193733282265e-01
2.029040886511272457e-01
2.029040886511272457e-01
1.956438670233091315e-01
1.956438670233091315e-01
1.956438670233091315e-01
1.933511654566297255e-01
1.933511654566297255e-01
1.994650363011081506e-01
1.994650363011081506e-01
1.994650363011081506e-01
1.864730607565915077e-01
1.864730607565915077e-01
1.857088269010317150e-01
1.857088269010317150e-01
1.857088269010317150e-01
1.872372946121513282e-01
1.872372946121513282e-01
1.902942300343905269e-01
1.902942300343905269e-01
1.902942300343905269e-01
1.948796331677493388e-01
1.948796331677493388e-01
1.849445930454719222e-01
1.849445930454719222e-01
1.849445930454719222e-01
1.799770729843332140e-01
1.799770729843332140e-01
1.925869316010699328e-01
1.925869316010699328e-01
1.925869316010699328e-01
1.834161253343523090e-01
1.834161253343523090e-01
1.845624761176920259e-01
1.845624761176920259e-01
1.845624761176920259e-01
1.922048146732900364e-01
1.922048146732900364e-01
1.738632021398547889e-01
1.738632021398547889e-01
1.738632021398547889e-01
1.780664883454337044e-01
1.780664883454337044e-01
1.723347344287352034e-01
1.723347344287352034e-01
1.723347344287352034e-01
1.757737867787542985e-01
1.757737867787542985e-01
1.761559037065341948e-01
1.761559037065341948e-01
1.761559037065341948e-01
1.792128391287733935e-01
1.792128391287733935e-01
1.692777990064959770e-01
1.692777990064959770e-01
1.692777990064959770e-01
1.662208635842567783e-01
1.662208635842567783e-01
1.692777990064959770e-01
1.692777990064959770e-01
1.692777990064959770e-01
1.669850974398165711e-01
1.669850974398165711e-01
1.551394726786396727e-01
1.551394726786396727e-01
1.727168513565150998e-01
1.727168513565150998e-01
1.727168513565150998e-01
1.730989682842949962e-01
1.730989682842949962e-01
1.589606419564386641e-01
1.589606419564386641e-01
1.589606419564386641e-01
1.723347344287352034e-01
1.723347344287352034e-01
1.685135651509361843e-01
1.685135651509361843e-01
1.685135651509361843e-01
1.620175773786778628e-01
1.620175773786778628e-01
1.639281620175773724e-01
1.639281620175773724e-01
1.639281620175773724e-01
1.669850974398165711e-01
1.669850974398165711e-01
1.536110049675200595e-01
1.536110049675200595e-01
1.536110049675200595e-01
1.494077187619411440e-01
1.494077187619411440e-01
1.570500573175391545e-01
1.570500573175391545e-01
1.570500573175391545e-01
1.474971341230416622e-01
1.474971341230416622e-01
1.581964081008788714e-01
1.581964081008788714e-01
1.581964081008788714e-01
1.593427588842185605e-01
1.593427588842185605e-01
1.517004203286205499e-01
1.517004203286205499e-01
1.517004203286205499e-01
1.436759648452426430e-01
1.436759648452426430e-01
1.436759648452426430e-01
1.436759648452426430e-01
1.436759648452426430e-01
1.555215896064195691e-01
1.555215896064195691e-01
1.463507833397019453e-01
1.463507833397019453e-01
1.463507833397019453e-01
1.566679403897592582e-01
1.566679403897592582e-01
1.474971341230416622e-01
1.474971341230416622e-01
1.474971341230416622e-01
1.520825372564004463e-01
1.520825372564004463e-01
1.436759648452426430e-01
1.436759648452426430e-01
1.436759648452426430e-01
1.585785250286587678e-01
1.585785250286587678e-01
1.440580817730225394e-01
1.440580817730225394e-01
1.440580817730225394e-01
1.497898356897210681e-01
1.497898356897210681e-01
1.455865494841421526e-01
1.455865494841421526e-01
1.455865494841421526e-01
1.467329002674818417e-01
1.467329002674818417e-01
1.517004203286205499e-01
1.517004203286205499e-01
1.517004203286205499e-01
1.486434849063813513e-01
1.486434849063813513e-01
1.406190294230034443e-01
1.406190294230034443e-01
1.406190294230034443e-01
1.463507833397019453e-01
1.463507833397019453e-01
1.329766908674054338e-01
1.329766908674054338e-01
1.329766908674054338e-01
1.501719526175009645e-01
1.501719526175009645e-01
1.345051585785250192e-01
1.345051585785250192e-01
1.345051585785250192e-01
1.417653802063431334e-01
1.417653802063431334e-01
1.471150171952617380e-01
1.471150171952617380e-01
1.471150171952617380e-01
1.459686664119220489e-01
1.459686664119220489e-01
1.310661062285059242e-01
1.310661062285059242e-01
1.310661062285059242e-01
1.417653802063431334e-01
1.417653802063431334e-01
1.325945739396255374e-01
1.325945739396255374e-01
1.325945739396255374e-01
1.360336262896446324e-01
1.360336262896446324e-01
1.394726786396637275e-01
1.394726786396637275e-01
1.394726786396637275e-01
1.425296140619029539e-01
1.425296140619029539e-01
1.341230416507451229e-01
1.341230416507451229e-01
1.341230416507451229e-01
1.364157432174245288e-01
1.364157432174245288e-01
1.280091708062667255e-01
1.280091708062667255e-01
1.280091708062667255e-01
1.348872755063049156e-01
1.348872755063049156e-01
1.291555215896064146e-01
1.291555215896064146e-01
1.291555215896064146e-01
1.387084447841039347e-01
1.387084447841039347e-01
1.264807030951471123e-01
1.264807030951471123e-01
1.264807030951471123e-01
1.264807030951471123e-01
1.264807030951471123e-01
1.333588077951853301e-01
1.333588077951853301e-01
1.333588077951853301e-01
1.345051585785250192e-01
1.345051585785250192e-01
1.268628200229270087e-01
1.268628200229270087e-01
1.268628200229270087e-01
1.314482231562858205e-01
1.314482231562858205e-01
1.234237676729079136e-01
1.234237676729079136e-01
1.234237676729079136e-01
1.241880015284677063e-01
1.241880015284677063e-01
1.356515093618647361e-01
1.356515093618647361e-01
1.356515093618647361e-01
1.345051585785250192e-01
1.345051585785250192e-01
1.356515093618647361e-01
1.356515093618647361e-01
1.356515093618647361e-01
1.230416507451280034e-01
1.230416507451280034e-01
1.364157432174245288e-01
1.364157432174245288e-01
1.364157432174245288e-01
1.283912877340466219e-01
1.283912877340466219e-01
1.333588077951853301e-01
1.333588077951853301e-01
1.333588077951853301e-01
1.410011463507833407e-01
1.410011463507833407e-01
1.280091708062667255e-01
1.280091708062667255e-01
1.280091708062667255e-01
1.291555215896064146e-01
1.291555215896064146e-01
1.310661062285059242e-01
1.310661062285059242e-01
1.310661062285059242e-01
1.218952999617883004e-01
1.218952999617883004e-01
1.257164692395873196e-01
1.257164692395873196e-01
1.257164692395873196e-01
1.215131830340084040e-01
1.215131830340084040e-01
1.383263278563240384e-01
1.383263278563240384e-01
1.383263278563240384e-01
1.260985861673672159e-01
1.260985861673672159e-01
1.222774168895682106e-01
1.222774168895682106e-01
1.222774168895682106e-01
1.272449369507069050e-01
1.272449369507069050e-01
1.268628200229270087e-01
1.268628200229270087e-01
1.268628200229270087e-01
1.276270538784868291e-01
1.276270538784868291e-01
1.238058846006878100e-01
1.238058846006878100e-01
1.238058846006878100e-01
1.352693924340848397e-01
1.352693924340848397e-01
1.314482231562858205e-01
1.314482231562858205e-01
1.180741306839892951e-01
1.180741306839892951e-01
1.180741306839892951e-01
1.325945739396255374e-01
1.325945739396255374e-01
1.303018723729461315e-01
1.303018723729461315e-01
1.303018723729461315e-01
1.356515093618647361e-01
1.356515093618647361e-01
1.322124570118456133e-01
1.322124570118456133e-01
1.322124570118456133e-01
1.249522353840275130e-01
1.249522353840275130e-01
1.257164692395873196e-01
1.257164692395873196e-01
1.257164692395873196e-01
1.257164692395873196e-01
1.257164692395873196e-01
1.207489491784486113e-01
1.207489491784486113e-01
1.207489491784486113e-01
1.325945739396255374e-01
1.325945739396255374e-01
1.184562476117692054e-01
1.184562476117692054e-01
1.184562476117692054e-01
1.234237676729079136e-01
1.234237676729079136e-01
1.360336262896446324e-01
1.360336262896446324e-01
1.360336262896446324e-01
1.230416507451280034e-01
1.230416507451280034e-01
1.199847153228888047e-01
1.199847153228888047e-01
1.199847153228888047e-01
1.314482231562858205e-01
1.314482231562858205e-01
1.276270538784868291e-01
1.276270538784868291e-01
1.276270538784868291e-01
1.295376385173863110e-01
1.295376385173863110e-01
1.295376385173863110e-01
1.295376385173863110e-01
1.295376385173863110e-01
1.264807030951471123e-01
1.264807030951471123e-01
1.364157432174245288e-01
1.364157432174245288e-01
1.364157432174245288e-01
1.249522353840275130e-01
1.249522353840275130e-01
1.318303400840657169e-01
1.318303400840657169e-01
1.318303400840657169e-01
1.222774168895682106e-01
1.222774168895682106e-01
1.329766908674054338e-01
1.329766908674054338e-01
1.329766908674054338e-01
1.272449369507069050e-01
1.272449369507069050e-01
1.425296140619029539e-01
1.425296140619029539e-01
1.425296140619029539e-01
1.341230416507451229e-01
1.341230416507451229e-01
1.295376385173863110e-01
1.295376385173863110e-01
1.295376385173863110e-01
1.303018723729461315e-01
1.303018723729461315e-01
1.329766908674054338e-01
1.329766908674054338e-01
1.329766908674054338e-01
1.325945739396255374e-01
1.325945739396255374e-01
1.272449369507069050e-01
1.272449369507069050e-01
1.272449369507069050e-01
1.226595338173481070e-01
1.226595338173481070e-01
1.215131830340084040e-01
1.215131830340084040e-01
1.215131830340084040e-01
1.406190294230034443e-01
1.406190294230034443e-01
1.345051585785250192e-01
1.345051585785250192e-01
1.345051585785250192e-01
1.337409247229652265e-01
1.337409247229652265e-01
1.345051585785250192e-01
1.345051585785250192e-01
1.345051585785250192e-01
1.268628200229270087e-01
1.268628200229270087e-01
1.371799770729843215e-01
1.371799770729843215e-01
1.371799770729843215e-01
1.390905617118838311e-01
1.390905617118838311e-01
1.440580817730225394e-01
1.440580817730225394e-01
1.440580817730225394e-01
1.413832632785632371e-01
1.413832632785632371e-01
1.524646541841803704e-01
1.524646541841803704e-01
1.524646541841803704e-01
1.639281620175773724e-01
1.639281620175773724e-01
1.818876576232326958e-01
1.818876576232326958e-01
1.818876576232326958e-01
1.727168513565150998e-01
1.727168513565150998e-01
1.887657623232709136e-01
1.887657623232709136e-01
1.887657623232709136e-01
2.059610240733664444e-01
2.059610240733664444e-01
2.124570118456247658e-01
2.124570118456247658e-01
2.124570118456247658e-01
2.281238058846006833e-01
2.281238058846006833e-01
2.277416889568207869e-01
2.277416889568207869e-01
2.277416889568207869e-01
2.411157814291172985e-01
2.411157814291172985e-01
2.499044707680550259e-01
2.499044707680550259e-01
2.499044707680550259e-01
2.609858616736721593e-01
2.609858616736721593e-01
2.785632403515475586e-01
2.785632403515475586e-01
2.785632403515475586e-01
2.984333205961023916e-01
2.984333205961023916e-01
3.041650745128008926e-01
3.041650745128008926e-01
3.041650745128008926e-01
3.129537638517386200e-01
3.129537638517386200e-01
3.171570500573175355e-01
3.171570500573175355e-01
3.171570500573175355e-01
3.236530378295758292e-01
3.236530378295758292e-01
3.389377149407718504e-01
3.389377149407718504e-01
3.389377149407718504e-01
3.423767672907909732e-01
3.423767672907909732e-01
3.614826136797860134e-01
3.614826136797860134e-01
3.614826136797860134e-01
3.557508597630875125e-01
3.557508597630875125e-01
3.729461215131830154e-01
3.729461215131830154e-01
3.729461215131830154e-01
3.882307986243790365e-01
3.882307986243790365e-01
3.813526939243408465e-01
3.813526939243408465e-01
3.813526939243408465e-01
3.912877340466182630e-01
3.912877340466182630e-01
3.886129155521589329e-01
3.886129155521589329e-01
3.886129155521589329e-01
4.019870080244554722e-01
4.019870080244554722e-01
4.092472296522736142e-01
4.092472296522736142e-01
4.092472296522736142e-01
4.191822697745510307e-01
4.191822697745510307e-01
4.123041650745127851e-01
4.123041650745127851e-01
4.123041650745127851e-01
4.214749713412304089e-01
4.214749713412304089e-01
4.218570882690103052e-01
4.218570882690103052e-01
4.218570882690103052e-01
4.157432174245319079e-01
4.157432174245319079e-01
4.180359189912112861e-01
4.180359189912112861e-01
4.180359189912112861e-01
4.260603744745892207e-01
4.260603744745892207e-01
4.184180359189912379e-01
4.184180359189912379e-01
4.214749713412304089e-01
4.214749713412304089e-01
4.214749713412304089e-01
4.314100114635078254e-01
4.314100114635078254e-01
4.325563622468475145e-01
4.325563622468475145e-01
4.325563622468475145e-01
4.302636606801681363e-01
4.302636606801681363e-01
4.325563622468475145e-01
4.325563622468475145e-01
4.325563622468475145e-01
4.199465036301108234e-01
4.199465036301108234e-01
4.249140236912495316e-01
4.249140236912495316e-01
4.249140236912495316e-01
4.188001528467711343e-01
4.188001528467711343e-01
4.421092854413450346e-01
4.421092854413450346e-01
4.421092854413450346e-01
4.245319067634696353e-01
4.245319067634696353e-01
4.356132976690867409e-01
4.356132976690867409e-01
4.356132976690867409e-01
4.214749713412304089e-01
4.214749713412304089e-01
4.241497898356897389e-01
4.241497898356897389e-01
4.241497898356897389e-01
4.329384791746274108e-01
4.329384791746274108e-01
4.252961406190294280e-01
4.252961406190294280e-01
4.252961406190294280e-01
4.287351929690485508e-01
4.287351929690485508e-01
4.260603744745892207e-01
4.260603744745892207e-01
4.260603744745892207e-01
4.165074512800917006e-01
4.165074512800917006e-01
4.226213221245700979e-01
4.226213221245700979e-01
4.226213221245700979e-01
4.180359189912112861e-01
4.180359189912112861e-01
4.115399312189529923e-01
4.115399312189529923e-01
4.115399312189529923e-01
4.191822697745510307e-01
4.191822697745510307e-01
4.176538020634313897e-01
4.176538020634313897e-01
4.176538020634313897e-01
4.134505158578525297e-01
4.134505158578525297e-01
4.130683989300725778e-01
4.130683989300725778e-01
4.130683989300725778e-01
4.046618265189148023e-01
4.046618265189148023e-01
4.008406572411157831e-01
4.008406572411157831e-01
4.008406572411157831e-01
4.019870080244554722e-01
4.019870080244554722e-01
3.970194879633167639e-01
3.970194879633167639e-01
3.970194879633167639e-01
4.058081773022544914e-01
4.058081773022544914e-01
3.924340848299579521e-01
3.924340848299579521e-01
3.924340848299579521e-01
3.909056171188383666e-01
3.909056171188383666e-01
4.012227741688956795e-01
4.012227741688956795e-01
4.012227741688956795e-01
3.893771494077187811e-01
3.893771494077187811e-01
3.821169277799006392e-01
3.821169277799006392e-01
3.821169277799006392e-01
3.851738632021398656e-01
3.851738632021398656e-01
3.740924722965227600e-01
3.740924722965227600e-01
3.740924722965227600e-01
3.775315246465418273e-01
3.775315246465418273e-01
3.870844478410393474e-01
3.870844478410393474e-01
3.870844478410393474e-01
3.633931983186854953e-01
3.633931983186854953e-01
3.698891860909438445e-01
3.698891860909438445e-01
3.698891860909438445e-01
3.710355368742835336e-01
3.710355368742835336e-01
3.710355368742835336e-01
3.710355368742835336e-01
3.710355368742835336e-01
3.614826136797860134e-01
3.614826136797860134e-01
3.626289644631257025e-01
3.626289644631257025e-01
3.626289644631257025e-01
3.572793274742070979e-01
3.572793274742070979e-01
3.416125334352311804e-01
3.416125334352311804e-01
3.416125334352311804e-01
3.515475735575085969e-01
3.515475735575085969e-01
3.496369889186091151e-01
3.496369889186091151e-01
3.496369889186091151e-01
3.389377149407718504e-01
3.389377149407718504e-01
3.439052350019105586e-01
3.439052350019105586e-01
3.439052350019105586e-01
3.324417271685135566e-01
3.324417271685135566e-01
3.324417271685135566e-01
3.324417271685135566e-01
3.324417271685135566e-01
3.374092472296522649e-01
3.374092472296522649e-01
3.290026748184944339e-01
3.290026748184944339e-01
3.290026748184944339e-01
3.133358807795185164e-01
3.133358807795185164e-01
3.244172716851356775e-01
3.244172716851356775e-01
3.244172716851356775e-01
3.225066870462361401e-01
3.225066870462361401e-01
3.190676346962170173e-01
3.190676346962170173e-01
3.190676346962170173e-01
3.144822315628582610e-01
3.144822315628582610e-01
3.160106992739778464e-01
3.160106992739778464e-01
3.160106992739778464e-01
3.018723729461215144e-01
3.018723729461215144e-01
3.114252961406190345e-01
3.114252961406190345e-01
3.114252961406190345e-01
3.022544898739014108e-01
3.022544898739014108e-01
2.999617883072220326e-01
2.999617883072220326e-01
2.999617883072220326e-01
2.995796713794421362e-01
2.995796713794421362e-01
2.873519296904852860e-01
2.873519296904852860e-01
2.873519296904852860e-01
2.923194497516239942e-01
2.923194497516239942e-01
2.965227359572029098e-01
2.965227359572029098e-01
2.965227359572029098e-01
2.949942682460833243e-01
2.949942682460833243e-01
2.972869698127627025e-01
2.972869698127627025e-01
2.972869698127627025e-01
2.873519296904852860e-01
2.873519296904852860e-01
2.835307604126862668e-01
2.835307604126862668e-01
2.835307604126862668e-01
2.938479174627435797e-01
2.938479174627435797e-01
2.835307604126862668e-01
2.835307604126862668e-01
2.835307604126862668e-01
2.877340466182651824e-01
2.877340466182651824e-01
2.900267481849446161e-01
2.900267481849446161e-01
2.900267481849446161e-01
2.808559419182269923e-01
2.808559419182269923e-01
2.846771111960260114e-01
2.846771111960260114e-01
2.846771111960260114e-01
2.789453572793274549e-01
2.789453572793274549e-01
2.682460833014902457e-01
2.682460833014902457e-01
2.682460833014902457e-01
2.732136033626289540e-01
2.732136033626289540e-01
2.804738249904470959e-01
2.804738249904470959e-01
2.739778372181887467e-01
2.739778372181887467e-01
2.739778372181887467e-01
2.659533817348108675e-01
2.659533817348108675e-01
2.751241880015284913e-01
2.751241880015284913e-01
2.751241880015284913e-01
2.670997325181505566e-01
2.670997325181505566e-01
2.590752770347726219e-01
2.590752770347726219e-01
2.590752770347726219e-01
2.617500955292319520e-01
2.617500955292319520e-01
2.724493695070691612e-01
2.724493695070691612e-01
2.724493695070691612e-01
2.648070309514711229e-01
2.648070309514711229e-01
2.678639663737103493e-01
2.678639663737103493e-01
2.678639663737103493e-01
2.628964463125716411e-01
2.628964463125716411e-01
2.533435231180741209e-01
2.533435231180741209e-01
2.533435231180741209e-01
2.495223538402751295e-01
2.495223538402751295e-01
2.636606801681314338e-01
2.636606801681314338e-01
2.636606801681314338e-01
2.544898739014138100e-01
2.544898739014138100e-01
2.491402369124952332e-01
2.491402369124952332e-01
2.491402369124952332e-01
2.426442491402369117e-01
2.426442491402369117e-01
2.487581199847153091e-01
2.487581199847153091e-01
2.487581199847153091e-01
2.472296522735957236e-01
2.472296522735957236e-01
2.491402369124952332e-01
2.491402369124952332e-01
2.491402369124952332e-01
2.537256400458540173e-01
2.537256400458540173e-01
2.376767290790982035e-01
2.376767290790982035e-01
2.376767290790982035e-01
2.418800152846771190e-01
2.418800152846771190e-01
2.495223538402751295e-01
2.495223538402751295e-01
2.495223538402751295e-01
2.327092090179594952e-01
2.327092090179594952e-01
2.277416889568207869e-01
2.277416889568207869e-01
2.277416889568207869e-01
2.311807413068398820e-01
2.311807413068398820e-01
2.338555598012991843e-01
2.338555598012991843e-01
2.338555598012991843e-01
2.311807413068398820e-01
2.311807413068398820e-01
2.334734428735192879e-01
2.334734428735192879e-01
2.334734428735192879e-01
2.350019105846389011e-01
2.350019105846389011e-01
2.342376767290791084e-01
2.342376767290791084e-01
2.342376767290791084e-01
2.113106610622850490e-01
2.113106610622850490e-01
2.189529996178830595e-01
2.189529996178830595e-01
2.189529996178830595e-01
2.300343905235001929e-01
2.300343905235001929e-01
2.296522735957202965e-01
2.296522735957202965e-01
2.296522735957202965e-01
2.185708826901031632e-01
2.185708826901031632e-01
2.113106610622850490e-01
2.113106610622850490e-01
2.113106610622850490e-01
2.097821933511654635e-01
2.097821933511654635e-01
2.147497134123041718e-01
2.147497134123041718e-01
2.147497134123041718e-01
2.197172334734428800e-01
2.197172334734428800e-01
2.143675964845242754e-01
2.143675964845242754e-01
2.143675964845242754e-01
2.139854795567443513e-01
2.139854795567443513e-01
2.132212457011845586e-01
2.132212457011845586e-01
2.132212457011845586e-01
2.025219717233473493e-01
2.025219717233473493e-01
2.132212457011845586e-01
2.132212457011845586e-01
2.132212457011845586e-01
2.044325563622468589e-01
2.044325563622468589e-01
2.044325563622468589e-01
2.044325563622468589e-01
2.044325563622468589e-01
1.971723347344287447e-01
1.971723347344287447e-01
2.013756209400076325e-01
2.013756209400076325e-01
2.013756209400076325e-01
2.021398547955674529e-01
2.021398547955674529e-01
2.021398547955674529e-01
2.021398547955674529e-01
2.021398547955674529e-01
1.933511654566297255e-01
1.933511654566297255e-01
1.941153993121895183e-01
1.941153993121895183e-01
1.941153993121895183e-01
1.906763469621704232e-01
1.906763469621704232e-01
1.987008024455483302e-01
1.987008024455483302e-01
1.987008024455483302e-01
1.925869316010699328e-01
1.925869316010699328e-01
1.841803591899121018e-01
1.841803591899121018e-01
1.841803591899121018e-01
1.853267099732518186e-01
1.853267099732518186e-01
1.841803591899121018e-01
1.841803591899121018e-01
1.841803591899121018e-01
1.845624761176920259e-01
1.845624761176920259e-01
1.925869316010699328e-01
1.925869316010699328e-01
1.925869316010699328e-01
1.795949560565533176e-01
1.795949560565533176e-01
1.769201375620939876e-01
1.769201375620939876e-01
1.769201375620939876e-01
1.788307222009934971e-01
1.788307222009934971e-01
1.792128391287733935e-01
1.792128391287733935e-01
1.792128391287733935e-01
1.761559037065341948e-01
1.761559037065341948e-01
1.696599159342759011e-01
1.696599159342759011e-01
1.696599159342759011e-01
1.662208635842567783e-01
1.662208635842567783e-01
1.704241497898356938e-01
1.704241497898356938e-01
1.704241497898356938e-01
1.730989682842949962e-01
1.730989682842949962e-01
1.746274359954146094e-01
1.746274359954146094e-01
1.746274359954146094e-01
1.746274359954146094e-01
1.746274359954146094e-01
1.769201375620939876e-01
1.769201375620939876e-01
1.769201375620939876e-01
1.815055406954527994e-01
1.815055406954527994e-01
1.658387466564768820e-01
1.658387466564768820e-01
1.658387466564768820e-01
1.727168513565150998e-01
1.727168513565150998e-01
1.700420328620557975e-01
1.700420328620557975e-01
1.700420328620557975e-01
1.730989682842949962e-01
1.730989682842949962e-01
1.708062667176155902e-01
1.708062667176155902e-01
1.708062667176155902e-01
1.593427588842185605e-01
1.593427588842185605e-01
1.734810852120748925e-01
1.734810852120748925e-01
1.646923958731371929e-01
1.646923958731371929e-01
1.646923958731371929e-01
1.673672143675964952e-01
1.673672143675964952e-01
1.601069927397783810e-01
1.601069927397783810e-01
1.601069927397783810e-01
1.730989682842949962e-01
1.730989682842949962e-01
1.631639281620175796e-01
1.631639281620175796e-01
1.631639281620175796e-01
1.608712265953381737e-01
1.608712265953381737e-01
1.581964081008788714e-01
1.581964081008788714e-01
1.581964081008788714e-01
1.524646541841803704e-01
1.524646541841803704e-01
1.593427588842185605e-01
1.593427588842185605e-01
1.593427588842185605e-01
1.620175773786778628e-01
1.620175773786778628e-01
1.608712265953381737e-01
1.608712265953381737e-01
1.608712265953381737e-01
1.662208635842567783e-01
1.662208635842567783e-01
1.654566297286969856e-01
1.654566297286969856e-01
1.654566297286969856e-01
1.650745128009170892e-01
1.650745128009170892e-01
1.562858234619793618e-01
1.562858234619793618e-01
1.562858234619793618e-01
1.436759648452426430e-01
1.436759648452426430e-01
1.486434849063813513e-01
1.486434849063813513e-01
1.486434849063813513e-01
1.528467711119602668e-01
1.528467711119602668e-01
1.574321742453190787e-01
1.574321742453190787e-01
1.574321742453190787e-01
1.585785250286587678e-01
1.585785250286587678e-01
1.623996943064577869e-01
1.623996943064577869e-01
1.623996943064577869e-01
1.467329002674818417e-01
1.467329002674818417e-01
1.497898356897210681e-01
1.497898356897210681e-01
1.497898356897210681e-01
1.593427588842185605e-01
1.593427588842185605e-01
1.539931218952999559e-01
1.539931218952999559e-01
1.539931218952999559e-01
1.467329002674818417e-01
1.467329002674818417e-01
1.474971341230416622e-01
1.474971341230416622e-01
1.474971341230416622e-01
1.520825372564004463e-01
1.520825372564004463e-01
1.494077187619411440e-01
1.494077187619411440e-01
1.494077187619411440e-01
1.429117309896828503e-01
1.429117309896828503e-01
1.448223156285823598e-01
1.448223156285823598e-01
1.448223156285823598e-01
1.486434849063813513e-01
1.486434849063813513e-01
1.413832632785632371e-01
1.413832632785632371e-01
1.413832632785632371e-01
1.394726786396637275e-01
1.394726786396637275e-01
1.444401987008024357e-01
1.444401987008024357e-01
1.444401987008024357e-01
1.532288880397401631e-01
1.532288880397401631e-01
1.436759648452426430e-01
1.436759648452426430e-01
1.436759648452426430e-01
1.410011463507833407e-01
1.410011463507833407e-01
1.463507833397019453e-01
1.463507833397019453e-01
1.463507833397019453e-01
1.490256018341612476e-01
1.490256018341612476e-01
1.452044325563622562e-01
1.452044325563622562e-01
1.452044325563622562e-01
1.440580817730225394e-01
1.440580817730225394e-01
1.345051585785250192e-01
1.345051585785250192e-01
1.345051585785250192e-01
1.379442109285441420e-01
1.379442109285441420e-01
1.352693924340848397e-01
1.352693924340848397e-01
1.352693924340848397e-01
1.425296140619029539e-01
1.425296140619029539e-01
1.471150171952617380e-01
1.471150171952617380e-01
1.471150171952617380e-01
1.440580817730225394e-01
1.440580817730225394e-01
1.314482231562858205e-01
1.314482231562858205e-01
1.314482231562858205e-01
1.341230416507451229e-01
1.341230416507451229e-01
1.299197554451662073e-01
1.299197554451662073e-01
1.299197554451662073e-01
1.455865494841421526e-01
1.455865494841421526e-01
1.440580817730225394e-01
1.440580817730225394e-01
1.440580817730225394e-01
1.329766908674054338e-01
1.329766908674054338e-01
1.444401987008024357e-01
1.444401987008024357e-01
1.444401987008024357e-01
1.440580817730225394e-01
1.440580817730225394e-01
1.352693924340848397e-01
1.352693924340848397e-01
1.352693924340848397e-01
1.448223156285823598e-01
1.448223156285823598e-01
1.471150171952617380e-01
1.471150171952617380e-01
1.471150171952617380e-01
1.402369124952235480e-01
1.402369124952235480e-01
1.325945739396255374e-01
1.325945739396255374e-01
1.325945739396255374e-01
1.341230416507451229e-01
1.341230416507451229e-01
1.417653802063431334e-01
1.417653802063431334e-01
1.417653802063431334e-01
1.280091708062667255e-01
1.280091708062667255e-01
1.241880015284677063e-01
1.241880015284677063e-01
1.241880015284677063e-01
1.367978601452044252e-01
1.367978601452044252e-01
1.306839893007260278e-01
1.306839893007260278e-01
1.306839893007260278e-01
1.356515093618647361e-01
1.356515093618647361e-01
1.375620940007642456e-01
1.375620940007642456e-01
1.375620940007642456e-01
1.360336262896446324e-01
1.360336262896446324e-01
1.295376385173863110e-01
1.295376385173863110e-01
1.295376385173863110e-01
1.329766908674054338e-01
1.329766908674054338e-01
1.360336262896446324e-01
1.360336262896446324e-01
1.360336262896446324e-01
1.280091708062667255e-01
1.280091708062667255e-01
1.299197554451662073e-01
1.299197554451662073e-01
1.299197554451662073e-01
1.390905617118838311e-01
1.390905617118838311e-01
1.199847153228888047e-01
1.199847153228888047e-01
1.199847153228888047e-01
1.245701184562476166e-01
1.245701184562476166e-01
1.192204814673289981e-01
1.192204814673289981e-01
1.192204814673289981e-01
1.337409247229652265e-01
1.337409247229652265e-01
1.249522353840275130e-01
1.249522353840275130e-01
1.352693924340848397e-01
1.352693924340848397e-01
1.352693924340848397e-01
1.291555215896064146e-01
1.291555215896064146e-01
1.337409247229652265e-01
1.337409247229652265e-01
1.337409247229652265e-01
1.218952999617883004e-01
1.218952999617883004e-01
1.356515093618647361e-01
1.356515093618647361e-01
1.356515093618647361e-01
1.352693924340848397e-01
1.352693924340848397e-01
1.257164692395873196e-01
1.257164692395873196e-01
1.257164692395873196e-01
1.345051585785250192e-01
1.345051585785250192e-01
1.280091708062667255e-01
1.280091708062667255e-01
1.280091708062667255e-01
1.318303400840657169e-01
1.318303400840657169e-01
1.379442109285441420e-01
1.379442109285441420e-01
1.379442109285441420e-01
1.333588077951853301e-01
1.333588077951853301e-01
1.436759648452426430e-01
1.436759648452426430e-01
1.436759648452426430e-01
1.379442109285441420e-01
1.379442109285441420e-01
1.524646541841803704e-01
1.524646541841803704e-01
1.524646541841803704e-01
1.570500573175391545e-01
1.570500573175391545e-01
1.658387466564768820e-01
1.658387466564768820e-01
1.658387466564768820e-01
1.730989682842949962e-01
1.730989682842949962e-01
1.730989682842949962e-01
1.730989682842949962e-01
1.730989682842949962e-01
1.837982422621322054e-01
1.837982422621322054e-01
1.902942300343905269e-01
1.902942300343905269e-01
1.902942300343905269e-01
2.124570118456247658e-01
2.124570118456247658e-01
2.265953381734810979e-01
2.265953381734810979e-01
2.265953381734810979e-01
2.262132212457011737e-01
2.262132212457011737e-01
2.468475353458158272e-01
2.468475353458158272e-01
2.468475353458158272e-01
2.464654184180359309e-01
2.464654184180359309e-01
2.636606801681314338e-01
2.636606801681314338e-01
2.636606801681314338e-01
2.632785632403515375e-01
2.632785632403515375e-01
2.888803974016048715e-01
2.888803974016048715e-01
2.888803974016048715e-01
2.999617883072220326e-01
2.999617883072220326e-01
3.045471914405808445e-01
3.045471914405808445e-01
3.045471914405808445e-01
3.121895299961788273e-01
3.121895299961788273e-01
3.202139854795567619e-01
3.202139854795567619e-01
3.202139854795567619e-01
3.324417271685135566e-01
3.324417271685135566e-01
3.389377149407718504e-01
3.389377149407718504e-01
3.389377149407718504e-01
3.504012227741689078e-01
3.504012227741689078e-01
3.595720290408865316e-01
3.595720290408865316e-01
3.595720290408865316e-01
3.656858998853649290e-01
3.656858998853649290e-01
3.614826136797860134e-01
3.614826136797860134e-01
3.614826136797860134e-01
3.691249522353840518e-01
3.691249522353840518e-01
3.798242262132212610e-01
3.798242262132212610e-01
3.798242262132212610e-01
3.901413832632785739e-01
3.901413832632785739e-01
3.943446694688574894e-01
3.943446694688574894e-01
3.943446694688574894e-01
4.012227741688956795e-01
4.012227741688956795e-01
3.966373710355368676e-01
3.966373710355368676e-01
3.966373710355368676e-01
3.977837218188765567e-01
3.977837218188765567e-01
4.042797095911349059e-01
4.042797095911349059e-01
4.042797095911349059e-01
4.115399312189529923e-01
4.115399312189529923e-01
4.138326327856324260e-01
4.138326327856324260e-01
4.138326327856324260e-01
4.084829957967138214e-01
4.084829957967138214e-01
4.061902942300343877e-01
4.061902942300343877e-01
4.061902942300343877e-01
4.230034390523499943e-01
4.230034390523499943e-01
4.149789835689721151e-01
4.149789835689721151e-01
4.149789835689721151e-01
4.210928544134505125e-01
4.210928544134505125e-01
4.176538020634313897e-01
4.176538020634313897e-01
4.176538020634313897e-01
4.195643867023309270e-01
4.195643867023309270e-01
4.241497898356897389e-01
4.241497898356897389e-01
4.241497898356897389e-01
4.359954145968666372e-01
4.359954145968666372e-01
4.233855559801299462e-01
4.233855559801299462e-01
4.233855559801299462e-01
4.260603744745892207e-01
4.260603744745892207e-01
4.317921283912877217e-01
4.317921283912877217e-01
4.317921283912877217e-01
4.230034390523499943e-01
4.230034390523499943e-01
4.272067252579289098e-01
4.272067252579289098e-01
4.272067252579289098e-01
4.314100114635078254e-01
4.314100114635078254e-01
4.252961406190294280e-01
4.252961406190294280e-01
4.252961406190294280e-01
4.180359189912112861e-01
4.180359189912112861e-01
4.333205961024073627e-01
4.333205961024073627e-01
4.333205961024073627e-01
4.287351929690485508e-01
4.287351929690485508e-01
4.226213221245700979e-01
4.226213221245700979e-01
4.226213221245700979e-01
4.210928544134505125e-01
4.210928544134505125e-01
4.218570882690103052e-01
4.218570882690103052e-01
4.218570882690103052e-01
4.241497898356897389e-01
4.241497898356897389e-01
4.119220481467328887e-01
4.119220481467328887e-01
4.119220481467328887e-01
4.123041650745127851e-01
4.123041650745127851e-01
4.184180359189912379e-01
4.184180359189912379e-01
4.184180359189912379e-01
4.019870080244554722e-01
4.019870080244554722e-01
4.069545280855941805e-01
4.069545280855941805e-01
4.069545280855941805e-01
4.126862820022926814e-01
4.126862820022926814e-01
4.065724111578142841e-01
4.065724111578142841e-01
4.065724111578142841e-01
3.981658387466564530e-01
3.981658387466564530e-01
3.863202139854795547e-01
3.863202139854795547e-01
3.863202139854795547e-01
3.886129155521589329e-01
3.886129155521589329e-01
3.924340848299579521e-01
3.924340848299579521e-01
3.993121895299961976e-01
3.993121895299961976e-01
3.993121895299961976e-01
3.916698509743981593e-01
3.916698509743981593e-01
3.737103553687428081e-01
3.737103553687428081e-01
3.737103553687428081e-01
3.805884600687810537e-01
3.805884600687810537e-01
3.763851738632021382e-01
3.763851738632021382e-01
3.763851738632021382e-01
3.653037829575850326e-01
3.653037829575850326e-01
3.763851738632021382e-01
3.763851738632021382e-01
3.763851738632021382e-01
3.599541459686664280e-01
3.599541459686664280e-01
3.725640045854031190e-01
3.725640045854031190e-01
3.725640045854031190e-01
3.637753152464653916e-01
3.637753152464653916e-01
3.523118074130683897e-01
3.523118074130683897e-01
3.523118074130683897e-01
3.488727550630492669e-01
3.488727550630492669e-01
3.515475735575085969e-01
3.515475735575085969e-01
3.515475735575085969e-01
3.404661826518914913e-01
3.404661826518914913e-01
3.458158196408100959e-01
3.458158196408100959e-01
3.458158196408100959e-01
3.328238440962934530e-01
3.328238440962934530e-01
3.328238440962934530e-01
3.328238440962934530e-01
3.328238440962934530e-01
3.316774933129537639e-01
3.316774933129537639e-01
3.324417271685135566e-01
3.324417271685135566e-01
3.324417271685135566e-01
3.205961024073366583e-01
3.205961024073366583e-01
3.225066870462361401e-01
3.225066870462361401e-01
3.225066870462361401e-01
3.125716469239587236e-01
3.125716469239587236e-01
3.198318685517768656e-01
3.198318685517768656e-01
3.198318685517768656e-01
3.106610622850592418e-01
3.106610622850592418e-01
3.202139854795567619e-01
3.202139854795567619e-01
3.202139854795567619e-01
3.037829575850209962e-01
3.037829575850209962e-01
3.079862437905999117e-01
3.079862437905999117e-01
3.079862437905999117e-01
3.014902560183416180e-01
3.014902560183416180e-01
2.900267481849446161e-01
2.900267481849446161e-01
2.900267481849446161e-01
2.946121513183034279e-01
2.946121513183034279e-01
2.896446312571647197e-01
2.896446312571647197e-01
2.896446312571647197e-01
2.934658005349636833e-01
2.934658005349636833e-01
2.842949942682460596e-01
2.842949942682460596e-01
2.842949942682460596e-01
2.785632403515475586e-01
2.785632403515475586e-01
2.816201757737867850e-01
2.816201757737867850e-01
2.816201757737867850e-01
2.777990064959877659e-01
2.777990064959877659e-01
2.850592281238059078e-01
2.850592281238059078e-01
2.850592281238059078e-01
2.625143293847917447e-01
2.625143293847917447e-01
2.686282002292701421e-01
2.686282002292701421e-01
2.686282002292701421e-01
2.644249140236912266e-01
2.644249140236912266e-01
2.713030187237294721e-01
2.713030187237294721e-01
2.713030187237294721e-01
2.758884218570882840e-01
2.758884218570882840e-01
2.606037447458922629e-01
2.606037447458922629e-01
2.606037447458922629e-01
2.636606801681314338e-01
2.636606801681314338e-01
2.567825754680932437e-01
2.567825754680932437e-01
2.567825754680932437e-01
2.579289262514329328e-01
2.579289262514329328e-01
2.621322124570118484e-01
2.621322124570118484e-01
2.621322124570118484e-01
2.529614061902942246e-01
2.529614061902942246e-01
2.667176155903706603e-01
2.667176155903706603e-01
2.667176155903706603e-01
2.506687046236148464e-01
2.506687046236148464e-01
2.541077569736339137e-01
2.541077569736339137e-01
2.541077569736339137e-01
2.457011845624761104e-01
2.457011845624761104e-01
2.514329384791746391e-01
2.514329384791746391e-01
2.514329384791746391e-01
2.472296522735957236e-01
2.472296522735957236e-01
2.422621322124570153e-01
2.422621322124570153e-01
2.422621322124570153e-01
2.495223538402751295e-01
2.495223538402751295e-01
2.434084829957967044e-01
2.434084829957967044e-01
2.434084829957967044e-01
2.388230798624378926e-01
2.388230798624378926e-01
2.518150554069545355e-01
2.518150554069545355e-01
2.518150554069545355e-01
2.434084829957967044e-01
2.434084829957967044e-01
2.468475353458158272e-01
2.468475353458158272e-01
2.468475353458158272e-01
2.407336645013374021e-01
2.407336645013374021e-01
2.430263660680168081e-01
2.430263660680168081e-01
2.430263660680168081e-01
2.346197936568590048e-01
2.346197936568590048e-01
2.361482613679785902e-01
2.361482613679785902e-01
2.361482613679785902e-01
2.338555598012991843e-01
2.338555598012991843e-01
2.353840275124187975e-01
2.353840275124187975e-01
2.353840275124187975e-01
2.342376767290791084e-01
2.342376767290791084e-01
2.384409629346579962e-01
2.384409629346579962e-01
2.384409629346579962e-01
2.265953381734810979e-01
2.265953381734810979e-01
2.323270920901795988e-01
2.323270920901795988e-01
2.323270920901795988e-01
2.277416889568207869e-01
2.277416889568207869e-01
2.273595720290408906e-01
2.273595720290408906e-01
2.273595720290408906e-01
2.231562858234619751e-01
2.231562858234619751e-01
2.189529996178830595e-01
2.189529996178830595e-01
2.189529996178830595e-01
2.105464272067252562e-01
2.105464272067252562e-01
2.120748949178448695e-01
2.120748949178448695e-01
2.120748949178448695e-01
2.231562858234619751e-01
2.231562858234619751e-01
2.109285441345051526e-01
2.109285441345051526e-01
2.109285441345051526e-01
2.113106610622850490e-01
2.113106610622850490e-01
2.078716087122659539e-01
2.078716087122659539e-01
2.059610240733664444e-01
2.059610240733664444e-01
2.059610240733664444e-01
2.116927779900649731e-01
2.116927779900649731e-01
2.105464272067252562e-01
2.105464272067252562e-01
2.105464272067252562e-01
2.147497134123041718e-01
2.147497134123041718e-01
2.147497134123041718e-01
2.147497134123041718e-01
2.147497134123041718e-01
1.998471532288880470e-01
1.998471532288880470e-01
2.082537256400458503e-01
2.082537256400458503e-01
2.082537256400458503e-01
1.918226977455101123e-01
1.918226977455101123e-01
2.051967902178066516e-01
2.051967902178066516e-01
2.051967902178066516e-01
2.067252579289262648e-01
2.067252579289262648e-01
1.899121131066106305e-01
1.899121131066106305e-01
1.899121131066106305e-01
1.956438670233091315e-01
1.956438670233091315e-01
1.971723347344287447e-01
1.971723347344287447e-01
1.971723347344287447e-01
1.902942300343905269e-01
1.902942300343905269e-01
1.860909438288116113e-01
1.860909438288116113e-01
1.860909438288116113e-01
1.990829193733282265e-01
1.990829193733282265e-01
1.868551776843714041e-01
1.868551776843714041e-01
1.868551776843714041e-01
2.025219717233473493e-01
2.025219717233473493e-01
1.929690485288498292e-01
1.929690485288498292e-01
1.929690485288498292e-01
1.784486052732136008e-01
1.784486052732136008e-01
1.853267099732518186e-01
1.853267099732518186e-01
1.853267099732518186e-01
1.937332823844096219e-01
1.937332823844096219e-01
1.860909438288116113e-01
1.860909438288116113e-01
1.860909438288116113e-01
1.818876576232326958e-01
1.818876576232326958e-01
1.811234237676729031e-01
1.811234237676729031e-01
1.811234237676729031e-01
1.811234237676729031e-01
1.811234237676729031e-01
1.891478792510508100e-01
1.891478792510508100e-01
1.891478792510508100e-01
1.803591899121131104e-01
1.803591899121131104e-01
1.757737867787542985e-01
1.757737867787542985e-01
1.757737867787542985e-01
1.818876576232326958e-01
1.818876576232326958e-01
1.841803591899121018e-01
1.841803591899121018e-01
1.841803591899121018e-01
1.688956820787160806e-01
1.688956820787160806e-01
1.738632021398547889e-01
1.738632021398547889e-01
1.738632021398547889e-01
1.811234237676729031e-01
1.811234237676729031e-01
1.773022544898739117e-01
1.773022544898739117e-01
1.773022544898739117e-01
1.666029805120366747e-01
1.666029805120366747e-01
1.792128391287733935e-01
1.792128391287733935e-01
1.792128391287733935e-01
1.750095529231945057e-01
1.750095529231945057e-01
1.650745128009170892e-01
1.650745128009170892e-01
1.650745128009170892e-01
1.750095529231945057e-01
1.750095529231945057e-01
1.715705005731753829e-01
1.715705005731753829e-01
1.715705005731753829e-01
1.616354604508979664e-01
1.616354604508979664e-01
1.738632021398547889e-01
1.738632021398547889e-01
1.738632021398547889e-01
1.704241497898356938e-01
1.704241497898356938e-01
1.570500573175391545e-01
1.570500573175391545e-01
1.570500573175391545e-01
1.612533435231180701e-01
1.612533435231180701e-01
1.589606419564386641e-01
1.589606419564386641e-01
1.589606419564386641e-01
1.746274359954146094e-01
1.746274359954146094e-01
1.708062667176155902e-01
1.708062667176155902e-01
1.708062667176155902e-01
1.543752388230798522e-01
1.543752388230798522e-01
1.547573557508597764e-01
1.547573557508597764e-01
1.547573557508597764e-01
1.578142911730989750e-01
1.578142911730989750e-01
1.562858234619793618e-01
1.562858234619793618e-01
1.562858234619793618e-01
1.490256018341612476e-01
1.490256018341612476e-01
1.471150171952617380e-01
1.471150171952617380e-01
1.471150171952617380e-01
1.608712265953381737e-01
1.608712265953381737e-01
1.509361864730607572e-01
1.509361864730607572e-01
1.509361864730607572e-01
1.654566297286969856e-01
1.654566297286969856e-01
1.520825372564004463e-01
1.520825372564004463e-01
1.520825372564004463e-01
1.524646541841803704e-01
1.524646541841803704e-01
1.581964081008788714e-01
1.581964081008788714e-01
1.581964081008788714e-01
1.459686664119220489e-01
1.459686664119220489e-01
1.402369124952235480e-01
1.402369124952235480e-01
1.402369124952235480e-01
1.486434849063813513e-01
1.486434849063813513e-01
1.562858234619793618e-01
1.562858234619793618e-01
1.562858234619793618e-01
1.559037065341994654e-01
1.559037065341994654e-01
1.390905617118838311e-01
1.390905617118838311e-01
1.390905617118838311e-01
1.375620940007642456e-01
1.375620940007642456e-01
1.410011463507833407e-01
1.410011463507833407e-01
1.410011463507833407e-01
1.352693924340848397e-01
1.352693924340848397e-01
1.497898356897210681e-01
1.497898356897210681e-01
1.497898356897210681e-01
1.413832632785632371e-01
1.413832632785632371e-01
1.459686664119220489e-01
1.459686664119220489e-01
1.459686664119220489e-01
1.482613679786014549e-01
1.482613679786014549e-01
1.494077187619411440e-01
1.494077187619411440e-01
1.494077187619411440e-01
1.478792510508215585e-01
1.478792510508215585e-01
1.497898356897210681e-01
1.497898356897210681e-01
1.497898356897210681e-01
1.390905617118838311e-01
1.390905617118838311e-01
1.494077187619411440e-01
1.494077187619411440e-01
1.494077187619411440e-01
1.471150171952617380e-01
1.471150171952617380e-01
1.474971341230416622e-01
1.474971341230416622e-01
1.474971341230416622e-01
1.501719526175009645e-01
1.501719526175009645e-01
1.360336262896446324e-01
1.360336262896446324e-01
1.394726786396637275e-01
1.394726786396637275e-01
1.394726786396637275e-01
1.455865494841421526e-01
1.455865494841421526e-01
1.333588077951853301e-01
1.333588077951853301e-01
1.333588077951853301e-01
1.387084447841039347e-01
1.387084447841039347e-01
1.364157432174245288e-01
1.364157432174245288e-01
1.364157432174245288e-01
1.467329002674818417e-01
1.467329002674818417e-01
1.295376385173863110e-01
1.295376385173863110e-01
1.295376385173863110e-01
1.440580817730225394e-01
1.440580817730225394e-01
1.325945739396255374e-01
1.325945739396255374e-01
1.325945739396255374e-01
1.413832632785632371e-01
1.413832632785632371e-01
1.291555215896064146e-01
1.291555215896064146e-01
1.291555215896064146e-01
1.276270538784868291e-01
1.276270538784868291e-01
1.478792510508215585e-01
1.478792510508215585e-01
1.478792510508215585e-01
1.352693924340848397e-01
1.352693924340848397e-01
1.345051585785250192e-01
1.345051585785250192e-01
1.345051585785250192e-01
1.425296140619029539e-01
1.425296140619029539e-01
1.276270538784868291e-01
1.276270538784868291e-01
1.276270538784868291e-01
1.387084447841039347e-01
1.387084447841039347e-01
1.333588077951853301e-01
1.333588077951853301e-01
1.333588077951853301e-01
1.280091708062667255e-01
1.280091708062667255e-01
1.474971341230416622e-01
1.474971341230416622e-01
1.474971341230416622e-01
1.406190294230034443e-01
1.406190294230034443e-01
1.257164692395873196e-01
1.257164692395873196e-01
1.257164692395873196e-01
1.260985861673672159e-01
1.260985861673672159e-01
1.238058846006878100e-01
1.238058846006878100e-01
1.238058846006878100e-01
1.398547955674436516e-01
1.398547955674436516e-01
1.387084447841039347e-01
1.387084447841039347e-01
1.387084447841039347e-01
1.249522353840275130e-01
1.249522353840275130e-01
1.425296140619029539e-01
1.425296140619029539e-01
1.425296140619029539e-01
1.230416507451280034e-01
1.230416507451280034e-01
1.410011463507833407e-01
1.410011463507833407e-01
1.410011463507833407e-01
1.318303400840657169e-01
1.318303400840657169e-01
1.432938479174627466e-01
1.432938479174627466e-01
1.432938479174627466e-01
1.383263278563240384e-01
1.383263278563240384e-01
1.398547955674436516e-01
1.398547955674436516e-01
1.398547955674436516e-01
1.394726786396637275e-01
1.394726786396637275e-01
1.310661062285059242e-01
1.310661062285059242e-01
1.310661062285059242e-01
1.432938479174627466e-01
1.432938479174627466e-01
1.478792510508215585e-01
1.478792510508215585e-01
1.478792510508215585e-01
1.471150171952617380e-01
1.471150171952617380e-01
1.333588077951853301e-01
1.333588077951853301e-01
1.333588077951853301e-01
1.257164692395873196e-01
1.257164692395873196e-01
1.364157432174245288e-01
1.364157432174245288e-01
1.364157432174245288e-01
1.260985861673672159e-01
1.260985861673672159e-01
1.314482231562858205e-01
1.314482231562858205e-01
1.314482231562858205e-01
1.318303400840657169e-01
1.318303400840657169e-01
1.260985861673672159e-01
1.260985861673672159e-01
1.260985861673672159e-01
1.299197554451662073e-01
1.299197554451662073e-01
1.360336262896446324e-01
1.360336262896446324e-01
1.360336262896446324e-01
1.398547955674436516e-01
1.398547955674436516e-01
1.413832632785632371e-01
1.413832632785632371e-01
1.413832632785632371e-01
1.299197554451662073e-01
1.299197554451662073e-01
1.241880015284677063e-01
1.241880015284677063e-01
1.241880015284677063e-01
1.329766908674054338e-01
1.329766908674054338e-01
1.410011463507833407e-01
1.410011463507833407e-01
1.410011463507833407e-01
1.413832632785632371e-01
1.413832632785632371e-01
1.425296140619029539e-01
1.425296140619029539e-01
1.425296140619029539e-01
1.348872755063049156e-01
1.348872755063049156e-01
1.348872755063049156e-01
1.348872755063049156e-01
1.348872755063049156e-01
1.463507833397019453e-01
1.463507833397019453e-01
1.562858234619793618e-01
1.562858234619793618e-01
1.562858234619793618e-01
1.539931218952999559e-01
1.539931218952999559e-01
1.440580817730225394e-01
1.440580817730225394e-01
1.440580817730225394e-01
1.559037065341994654e-01
1.559037065341994654e-01
1.738632021398547889e-01
1.738632021398547889e-01
1.738632021398547889e-01
1.811234237676729031e-01
1.811234237676729031e-01
1.834161253343523090e-01
1.834161253343523090e-01
1.834161253343523090e-01
2.013756209400076325e-01
2.013756209400076325e-01
2.021398547955674529e-01
2.021398547955674529e-01
2.021398547955674529e-01
2.235384027512418714e-01
2.235384027512418714e-01
2.208635842567825691e-01
2.208635842567825691e-01
2.208635842567825691e-01
2.544898739014138100e-01
2.544898739014138100e-01
2.560183416125334510e-01
2.560183416125334510e-01
2.560183416125334510e-01
2.613679786014520556e-01
2.613679786014520556e-01
2.785632403515475586e-01
2.785632403515475586e-01
2.785632403515475586e-01
2.888803974016048715e-01
2.888803974016048715e-01
2.896446312571647197e-01
2.896446312571647197e-01
2.896446312571647197e-01
3.183034008406572246e-01
3.183034008406572246e-01
3.186855177684371210e-01
3.186855177684371210e-01
3.186855177684371210e-01
3.377913641574321613e-01
3.377913641574321613e-01
3.366450133740924722e-01
3.366450133740924722e-01
3.561329766908674088e-01
3.561329766908674088e-01
3.561329766908674088e-01
3.473442873519296814e-01
3.473442873519296814e-01
3.668322506687046181e-01
3.668322506687046181e-01
3.668322506687046181e-01
3.668322506687046181e-01
3.668322506687046181e-01
3.695070691631639481e-01
3.695070691631639481e-01
3.695070691631639481e-01
3.840275124188001765e-01
3.840275124188001765e-01
3.817348108521207428e-01
3.817348108521207428e-01
3.817348108521207428e-01
4.012227741688956795e-01
4.012227741688956795e-01
3.974016048910966603e-01
3.974016048910966603e-01
3.974016048910966603e-01
4.100114635078334069e-01
4.100114635078334069e-01
4.111578142911730960e-01
4.111578142911730960e-01
4.111578142911730960e-01
4.054260603744745950e-01
4.054260603744745950e-01
4.218570882690103052e-01
4.218570882690103052e-01
4.218570882690103052e-01
