2.319449751623997025e-01
2.319449751623997025e-01
2.300343905235001929e-01
2.300343905235001929e-01
2.502865876958349500e-01
2.502865876958349500e-01
2.502865876958349500e-01
2.499044707680550259e-01
2.499044707680550259e-01
2.502865876958349500e-01
2.502865876958349500e-01
2.502865876958349500e-01
2.158960641956438609e-01
2.158960641956438609e-01
2.479938861291555163e-01
2.479938861291555163e-01
2.479938861291555163e-01
2.460833014902560067e-01
2.460833014902560067e-01
2.418800152846771190e-01
2.418800152846771190e-01
2.418800152846771190e-01
2.369124952235384107e-01
2.369124952235384107e-01
2.181887657623232668e-01
2.181887657623232668e-01
2.395873137179977130e-01
2.395873137179977130e-01
2.395873137179977130e-01
2.357661444401986939e-01
2.357661444401986939e-01
2.395873137179977130e-01
2.395873137179977130e-01
2.395873137179977130e-01
2.334734428735192879e-01
2.334734428735192879e-01
2.235384027512418714e-01
2.235384027512418714e-01
2.235384027512418714e-01
2.044325563622468589e-01
2.044325563622468589e-01
1.990829193733282265e-01
1.990829193733282265e-01
1.990829193733282265e-01
2.086358425678257467e-01
2.086358425678257467e-01
2.174245319067634741e-01
2.174245319067634741e-01
2.174245319067634741e-01
1.960259839510890278e-01
1.960259839510890278e-01
2.220099350401222860e-01
2.220099350401222860e-01
2.220099350401222860e-01
1.952617500955292351e-01
1.952617500955292351e-01
2.143675964845242754e-01
2.143675964845242754e-01
2.143675964845242754e-01
2.162781811234237572e-01
2.162781811234237572e-01
1.895299961788307341e-01
1.895299961788307341e-01
1.895299961788307341e-01
1.837982422621322054e-01
1.837982422621322054e-01
1.826518914787925163e-01
1.826518914787925163e-01
1.826518914787925163e-01
1.818876576232326958e-01
1.818876576232326958e-01
1.792128391287733935e-01
1.792128391287733935e-01
1.792128391287733935e-01
1.868551776843714041e-01
1.868551776843714041e-01
2.044325563622468589e-01
2.044325563622468589e-01
2.044325563622468589e-01
1.723347344287352034e-01
1.723347344287352034e-01
1.746274359954146094e-01
1.746274359954146094e-01
1.746274359954146094e-01
1.669850974398165711e-01
1.669850974398165711e-01
1.677493312953763915e-01
1.677493312953763915e-01
1.677493312953763915e-01
1.604891096675582773e-01
1.604891096675582773e-01
1.941153993121895183e-01
1.941153993121895183e-01
1.941153993121895183e-01
1.765380206343140912e-01
1.765380206343140912e-01
1.811234237676729031e-01
1.811234237676729031e-01
1.811234237676729031e-01
1.765380206343140912e-01
1.765380206343140912e-01
1.868551776843714041e-01
1.868551776843714041e-01
1.868551776843714041e-01
1.585785250286587678e-01
1.585785250286587678e-01
1.662208635842567783e-01
1.662208635842567783e-01
1.662208635842567783e-01
1.769201375620939876e-01
1.769201375620939876e-01
1.811234237676729031e-01
1.811234237676729031e-01
1.811234237676729031e-01
1.650745128009170892e-01
1.650745128009170892e-01
1.730989682842949962e-01
1.730989682842949962e-01
1.730989682842949962e-01
1.688956820787160806e-01
1.688956820787160806e-01
1.685135651509361843e-01
1.685135651509361843e-01
1.685135651509361843e-01
1.432938479174627466e-01
1.432938479174627466e-01
1.524646541841803704e-01
1.524646541841803704e-01
1.524646541841803704e-01
1.562858234619793618e-01
1.562858234619793618e-01
1.616354604508979664e-01
1.616354604508979664e-01
1.616354604508979664e-01
1.467329002674818417e-01
1.467329002674818417e-01
1.639281620175773724e-01
1.639281620175773724e-01
1.639281620175773724e-01
1.524646541841803704e-01
1.524646541841803704e-01
1.555215896064195691e-01
1.555215896064195691e-01
1.555215896064195691e-01
1.547573557508597764e-01
1.547573557508597764e-01
1.325945739396255374e-01
1.325945739396255374e-01
1.325945739396255374e-01
1.566679403897592582e-01
1.566679403897592582e-01
1.371799770729843215e-01
1.371799770729843215e-01
1.371799770729843215e-01
1.524646541841803704e-01
1.524646541841803704e-01
1.375620940007642456e-01
1.375620940007642456e-01
1.375620940007642456e-01
1.241880015284677063e-01
1.241880015284677063e-01
1.364157432174245288e-01
1.364157432174245288e-01
1.364157432174245288e-01
1.272449369507069050e-01
1.272449369507069050e-01
1.348872755063049156e-01
1.348872755063049156e-01
1.348872755063049156e-01
1.280091708062667255e-01
1.280091708062667255e-01
1.425296140619029539e-01
1.425296140619029539e-01
1.425296140619029539e-01
1.348872755063049156e-01
1.348872755063049156e-01
1.410011463507833407e-01
1.410011463507833407e-01
1.410011463507833407e-01
1.421474971341230298e-01
1.421474971341230298e-01
1.153993121895299928e-01
1.153993121895299928e-01
1.153993121895299928e-01
1.138708444784103935e-01
1.138708444784103935e-01
1.142529614061902898e-01
1.142529614061902898e-01
1.142529614061902898e-01
1.310661062285059242e-01
1.310661062285059242e-01
1.238058846006878100e-01
1.238058846006878100e-01
1.238058846006878100e-01
1.459686664119220489e-01
1.459686664119220489e-01
1.161635460450897994e-01
1.161635460450897994e-01
1.161635460450897994e-01
1.345051585785250192e-01
1.345051585785250192e-01
1.100496752006113882e-01
1.100496752006113882e-01
1.100496752006113882e-01
1.127244936950706905e-01
1.127244936950706905e-01
1.230416507451280034e-01
1.230416507451280034e-01
1.230416507451280034e-01
1.371799770729843215e-01
1.371799770729843215e-01
1.283912877340466219e-01
1.283912877340466219e-01
1.283912877340466219e-01
1.092854413450515816e-01
1.092854413450515816e-01
1.264807030951471123e-01
1.264807030951471123e-01
1.264807030951471123e-01
1.180741306839892951e-01
1.180741306839892951e-01
1.199847153228888047e-01
1.199847153228888047e-01
1.199847153228888047e-01
1.096675582728314918e-01
1.096675582728314918e-01
1.406190294230034443e-01
1.406190294230034443e-01
1.188383645395491017e-01
1.188383645395491017e-01
1.188383645395491017e-01
1.364157432174245288e-01
1.364157432174245288e-01
1.146350783339702001e-01
1.146350783339702001e-01
1.146350783339702001e-01
1.333588077951853301e-01
1.333588077951853301e-01
1.131066106228505869e-01
1.131066106228505869e-01
1.131066106228505869e-01
1.345051585785250192e-01
1.345051585785250192e-01
1.310661062285059242e-01
1.310661062285059242e-01
1.310661062285059242e-01
1.089033244172716852e-01
1.089033244172716852e-01
1.016431027894535710e-01
1.016431027894535710e-01
1.016431027894535710e-01
1.050821551394726799e-01
1.050821551394726799e-01
1.215131830340084040e-01
1.215131830340084040e-01
1.215131830340084040e-01
1.333588077951853301e-01
1.333588077951853301e-01
1.035536874283530806e-01
1.035536874283530806e-01
1.035536874283530806e-01
1.257164692395873196e-01
1.257164692395873196e-01
1.215131830340084040e-01
1.215131830340084040e-01
1.215131830340084040e-01
1.306839893007260278e-01
1.306839893007260278e-01
9.935040122277416508e-02
9.935040122277416508e-02
9.935040122277416508e-02
1.050821551394726799e-01
1.050821551394726799e-01
1.295376385173863110e-01
1.295376385173863110e-01
1.295376385173863110e-01
1.077569736339319822e-01
1.077569736339319822e-01
9.935040122277416508e-02
9.935040122277416508e-02
9.935040122277416508e-02
9.973251815055407532e-02
9.973251815055407532e-02
1.241880015284677063e-01
1.241880015284677063e-01
1.241880015284677063e-01
1.027894535727932740e-01
1.027894535727932740e-01
1.234237676729079136e-01
1.234237676729079136e-01
1.234237676729079136e-01
9.705769965609475913e-02
9.705769965609475913e-02
1.306839893007260278e-01
1.306839893007260278e-01
1.306839893007260278e-01
1.203668322506687011e-01
1.203668322506687011e-01
1.027894535727932740e-01
1.027894535727932740e-01
1.027894535727932740e-01
1.211310661062285077e-01
1.211310661062285077e-01
1.020252197172334674e-01
1.020252197172334674e-01
1.020252197172334674e-01
1.283912877340466219e-01
1.283912877340466219e-01
1.104317921283912846e-01
1.104317921283912846e-01
1.104317921283912846e-01
9.705769965609475913e-02
9.705769965609475913e-02
1.234237676729079136e-01
1.234237676729079136e-01
1.234237676729079136e-01
1.150171952617500964e-01
1.150171952617500964e-01
1.303018723729461315e-01
1.303018723729461315e-01
1.303018723729461315e-01
9.629346580053496640e-02
9.629346580053496640e-02
1.253343523118074232e-01
1.253343523118074232e-01
1.253343523118074232e-01
9.552923194497515980e-02
9.552923194497515980e-02
1.257164692395873196e-01
1.257164692395873196e-01
1.257164692395873196e-01
1.134887275506304971e-01
1.134887275506304971e-01
9.820405043943446211e-02
9.820405043943446211e-02
9.820405043943446211e-02
1.203668322506687011e-01
1.203668322506687011e-01
1.230416507451280034e-01
1.230416507451280034e-01
1.230416507451280034e-01
9.170806266717615451e-02
9.170806266717615451e-02
9.247229652273596112e-02
9.247229652273596112e-02
9.247229652273596112e-02
1.115781429117309875e-01
1.115781429117309875e-01
1.215131830340084040e-01
1.215131830340084040e-01
1.215131830340084040e-01
9.896828429499426871e-02
9.896828429499426871e-02
1.069927397783721756e-01
1.069927397783721756e-01
1.069927397783721756e-01
1.230416507451280034e-01
1.230416507451280034e-01
1.131066106228505869e-01
1.131066106228505869e-01
1.131066106228505869e-01
1.134887275506304971e-01
1.134887275506304971e-01
1.039358043561329770e-01
1.039358043561329770e-01
1.039358043561329770e-01
9.743981658387466938e-02
9.743981658387466938e-02
1.199847153228888047e-01
1.199847153228888047e-01
1.199847153228888047e-01
1.012609858616736747e-01
1.012609858616736747e-01
1.081390905617118786e-01
1.081390905617118786e-01
1.081390905617118786e-01
1.218952999617883004e-01
1.218952999617883004e-01
9.591134887275505616e-02
9.591134887275505616e-02
9.591134887275505616e-02
1.157814291173099031e-01
1.157814291173099031e-01
1.218952999617883004e-01
1.218952999617883004e-01
1.218952999617883004e-01
1.066106228505922793e-01
1.066106228505922793e-01
9.820405043943446211e-02
9.820405043943446211e-02
9.820405043943446211e-02
9.400076423385556046e-02
9.400076423385556046e-02
1.142529614061902898e-01
1.142529614061902898e-01
1.142529614061902898e-01
9.858616736721437235e-02
9.858616736721437235e-02
9.820405043943446211e-02
9.820405043943446211e-02
9.820405043943446211e-02
1.218952999617883004e-01
1.218952999617883004e-01
1.173098968284295024e-01
1.173098968284295024e-01
1.173098968284295024e-01
1.272449369507069050e-01
1.272449369507069050e-01
1.100496752006113882e-01
1.100496752006113882e-01
1.100496752006113882e-01
1.119602598395108839e-01
1.119602598395108839e-01
1.306839893007260278e-01
1.306839893007260278e-01
1.306839893007260278e-01
1.226595338173481070e-01
1.226595338173481070e-01
1.421474971341230298e-01
1.421474971341230298e-01
1.421474971341230298e-01
1.150171952617500964e-01
1.150171952617500964e-01
1.153993121895299928e-01
1.153993121895299928e-01
1.153993121895299928e-01
1.402369124952235480e-01
1.402369124952235480e-01
1.486434849063813513e-01
1.486434849063813513e-01
1.501719526175009645e-01
1.501719526175009645e-01
1.501719526175009645e-01
1.658387466564768820e-01
1.658387466564768820e-01
1.455865494841421526e-01
1.455865494841421526e-01
1.455865494841421526e-01
1.662208635842567783e-01
1.662208635842567783e-01
1.669850974398165711e-01
1.669850974398165711e-01
1.669850974398165711e-01
1.933511654566297255e-01
1.933511654566297255e-01
1.864730607565915077e-01
1.864730607565915077e-01
1.864730607565915077e-01
1.906763469621704232e-01
1.906763469621704232e-01
2.189529996178830595e-01
2.189529996178830595e-01
2.189529996178830595e-01
2.392051967902178167e-01
2.392051967902178167e-01
2.491402369124952332e-01
2.491402369124952332e-01
2.491402369124952332e-01
2.632785632403515375e-01
2.632785632403515375e-01
2.521971723347344319e-01
2.521971723347344319e-01
2.521971723347344319e-01
2.682460833014902457e-01
2.682460833014902457e-01
2.831486434849063705e-01
2.831486434849063705e-01
2.831486434849063705e-01
3.141001146350783091e-01
3.141001146350783091e-01
3.225066870462361401e-01
3.225066870462361401e-01
3.225066870462361401e-01
3.286205578907145375e-01
3.286205578907145375e-01
3.286205578907145375e-01
3.286205578907145375e-01
3.286205578907145375e-01
3.320596102407336603e-01
3.320596102407336603e-01
3.347344287351929903e-01
3.347344287351929903e-01
3.347344287351929903e-01
3.760030569354222418e-01
3.760030569354222418e-01
3.675964845242644108e-01
3.675964845242644108e-01
3.675964845242644108e-01
3.637753152464653916e-01
3.637753152464653916e-01
3.947267863966373858e-01
3.947267863966373858e-01
3.947267863966373858e-01
4.123041650745127851e-01
4.123041650745127851e-01
3.996943064577760940e-01
3.996943064577760940e-01
3.996943064577760940e-01
3.974016048910966603e-01
3.974016048910966603e-01
4.241497898356897389e-01
4.241497898356897389e-01
4.241497898356897389e-01
4.367596484524264300e-01
4.367596484524264300e-01
4.447841039358043647e-01
4.447841039358043647e-01
4.447841039358043647e-01
4.207107374856706161e-01
4.207107374856706161e-01
4.478410393580435356e-01
4.478410393580435356e-01
4.478410393580435356e-01
4.543370271303018848e-01
4.543370271303018848e-01
4.558654948414214703e-01
4.558654948414214703e-01
4.558654948414214703e-01
4.638899503247994049e-01
4.638899503247994049e-01
4.554833779136415739e-01
4.554833779136415739e-01
4.554833779136415739e-01
4.459304547191440538e-01
4.459304547191440538e-01
4.551012609858616775e-01
4.551012609858616775e-01
4.551012609858616775e-01
4.726786396637370768e-01
4.726786396637370768e-01
4.505158578525028656e-01
4.505158578525028656e-01
4.505158578525028656e-01
4.596866641192204894e-01
4.596866641192204894e-01
4.508979747802827620e-01
4.508979747802827620e-01
4.508979747802827620e-01
4.818494459304547006e-01
4.818494459304547006e-01
4.543370271303018848e-01
4.543370271303018848e-01
4.543370271303018848e-01
4.749713412304165105e-01
4.749713412304165105e-01
4.661826518914787831e-01
4.661826518914787831e-01
4.661826518914787831e-01
4.600687810470003858e-01
4.600687810470003858e-01
4.837600305693542380e-01
4.837600305693542380e-01
4.837600305693542380e-01
4.677111196025983686e-01
4.677111196025983686e-01
4.661826518914787831e-01
4.661826518914787831e-01
4.661826518914787831e-01
4.722965227359571805e-01
4.722965227359571805e-01
4.646541841803591977e-01
4.646541841803591977e-01
4.646541841803591977e-01
4.417271685135651382e-01
4.417271685135651382e-01
4.524264424914023475e-01
4.524264424914023475e-01
4.524264424914023475e-01
4.531906763469621957e-01
4.531906763469621957e-01
4.379059992357661191e-01
4.379059992357661191e-01
4.379059992357661191e-01
4.459304547191440538e-01
4.459304547191440538e-01
4.604508979747802822e-01
4.604508979747802822e-01
4.604508979747802822e-01
4.329384791746274108e-01
4.329384791746274108e-01
4.310278945357279290e-01
4.310278945357279290e-01
4.310278945357279290e-01
4.405808177302254491e-01
4.405808177302254491e-01
4.455483377913641574e-01
4.455483377913641574e-01
4.455483377913641574e-01
4.203286205578907198e-01
4.203286205578907198e-01
4.314100114635078254e-01
4.314100114635078254e-01
4.314100114635078254e-01
4.382881161635460709e-01
4.382881161635460709e-01
4.409629346580053455e-01
4.409629346580053455e-01
4.409629346580053455e-01
4.379059992357661191e-01
4.379059992357661191e-01
4.291173098968284472e-01
4.291173098968284472e-01
4.291173098968284472e-01
4.123041650745127851e-01
4.123041650745127851e-01
4.333205961024073627e-01
4.333205961024073627e-01
4.333205961024073627e-01
4.168895682078715970e-01
4.168895682078715970e-01
4.000764233855559904e-01
4.000764233855559904e-01
4.000764233855559904e-01
4.058081773022544914e-01
4.058081773022544914e-01
4.161253343523118042e-01
4.161253343523118042e-01
4.161253343523118042e-01
4.065724111578142841e-01
4.065724111578142841e-01
3.897592663354986775e-01
3.897592663354986775e-01
3.897592663354986775e-01
4.019870080244554722e-01
4.019870080244554722e-01
3.981658387466564530e-01
3.981658387466564530e-01
3.981658387466564530e-01
3.779136415743217237e-01
3.779136415743217237e-01
4.016048910966755758e-01
4.016048910966755758e-01
4.016048910966755758e-01
3.771494077187619309e-01
3.771494077187619309e-01
3.717997707298433263e-01
3.717997707298433263e-01
3.626289644631257025e-01
3.626289644631257025e-01
3.626289644631257025e-01
3.733282384409629118e-01
3.733282384409629118e-01
3.691249522353840518e-01
3.691249522353840518e-01
3.691249522353840518e-01
3.450515857852503032e-01
3.450515857852503032e-01
3.637753152464653916e-01
3.637753152464653916e-01
3.637753152464653916e-01
3.362628964463125758e-01
3.362628964463125758e-01
3.484906381352693705e-01
3.484906381352693705e-01
3.484906381352693705e-01
3.404661826518914913e-01
3.404661826518914913e-01
3.202139854795567619e-01
3.202139854795567619e-01
3.202139854795567619e-01
3.400840657241115950e-01
3.400840657241115950e-01
3.160106992739778464e-01
3.160106992739778464e-01
3.160106992739778464e-01
3.007260221627818253e-01
3.007260221627818253e-01
3.034008406572410999e-01
3.034008406572410999e-01
3.034008406572410999e-01
3.095147115017195527e-01
3.095147115017195527e-01
2.923194497516239942e-01
2.923194497516239942e-01
2.923194497516239942e-01
2.823844096293465777e-01
2.823844096293465777e-01
2.846771111960260114e-01
2.846771111960260114e-01
2.846771111960260114e-01
2.762705387848681804e-01
2.762705387848681804e-01
2.632785632403515375e-01
2.632785632403515375e-01
2.632785632403515375e-01
2.678639663737103493e-01
2.678639663737103493e-01
2.483760030569354127e-01
2.483760030569354127e-01
2.483760030569354127e-01
2.693924340848299348e-01
2.693924340848299348e-01
2.521971723347344319e-01
2.521971723347344319e-01
2.521971723347344319e-01
2.449369507069163177e-01
2.449369507069163177e-01
2.468475353458158272e-01
2.468475353458158272e-01
2.468475353458158272e-01
2.567825754680932437e-01
2.567825754680932437e-01
2.300343905235001929e-01
2.300343905235001929e-01
2.300343905235001929e-01
2.327092090179594952e-01
2.327092090179594952e-01
2.372946121513183071e-01
2.372946121513183071e-01
2.372946121513183071e-01
2.388230798624378926e-01
2.388230798624378926e-01
2.231562858234619751e-01
2.231562858234619751e-01
2.231562858234619751e-01
2.407336645013374021e-01
2.407336645013374021e-01
2.353840275124187975e-01
2.353840275124187975e-01
2.353840275124187975e-01
2.369124952235384107e-01
2.369124952235384107e-01
2.170424149789835777e-01
2.170424149789835777e-01
2.170424149789835777e-01
2.216278181123423896e-01
2.216278181123423896e-01
2.346197936568590048e-01
2.346197936568590048e-01
2.346197936568590048e-01
2.116927779900649731e-01
2.116927779900649731e-01
2.269774551012609942e-01
2.269774551012609942e-01
2.269774551012609942e-01
2.296522735957202965e-01
2.296522735957202965e-01
2.116927779900649731e-01
2.116927779900649731e-01
2.116927779900649731e-01
2.392051967902178167e-01
2.392051967902178167e-01
2.392051967902178167e-01
2.392051967902178167e-01
2.392051967902178167e-01
2.411157814291172985e-01
2.411157814291172985e-01
2.227741688956820787e-01
2.227741688956820787e-01
2.227741688956820787e-01
2.220099350401222860e-01
2.220099350401222860e-01
2.281238058846006833e-01
2.281238058846006833e-01
2.281238058846006833e-01
2.342376767290791084e-01
2.342376767290791084e-01
2.113106610622850490e-01
2.113106610622850490e-01
2.113106610622850490e-01
2.105464272067252562e-01
2.105464272067252562e-01
2.372946121513183071e-01
2.372946121513183071e-01
2.372946121513183071e-01
2.113106610622850490e-01
2.113106610622850490e-01
2.250668704623614846e-01
2.250668704623614846e-01
2.250668704623614846e-01
2.105464272067252562e-01
2.105464272067252562e-01
2.265953381734810979e-01
2.265953381734810979e-01
2.265953381734810979e-01
2.342376767290791084e-01
2.342376767290791084e-01
2.319449751623997025e-01
2.319449751623997025e-01
2.319449751623997025e-01
2.392051967902178167e-01
2.392051967902178167e-01
2.380588460068780998e-01
2.380588460068780998e-01
2.380588460068780998e-01
2.055789071455865480e-01
2.055789071455865480e-01
2.109285441345051526e-01
2.109285441345051526e-01
2.109285441345051526e-01
2.055789071455865480e-01
2.055789071455865480e-01
2.090179594956056430e-01
2.090179594956056430e-01
2.090179594956056430e-01
2.323270920901795988e-01
2.323270920901795988e-01
2.155139472678639645e-01
2.155139472678639645e-01
2.155139472678639645e-01
1.971723347344287447e-01
1.971723347344287447e-01
2.029040886511272457e-01
2.029040886511272457e-01
2.029040886511272457e-01
2.002292701566679434e-01
2.002292701566679434e-01
2.185708826901031632e-01
2.185708826901031632e-01
2.185708826901031632e-01
1.971723347344287447e-01
1.971723347344287447e-01
2.239205196790217678e-01
2.239205196790217678e-01
2.239205196790217678e-01
1.948796331677493388e-01
1.948796331677493388e-01
1.899121131066106305e-01
1.899121131066106305e-01
1.899121131066106305e-01
2.174245319067634741e-01
2.174245319067634741e-01
2.048146732900267553e-01
2.048146732900267553e-01
2.048146732900267553e-01
1.826518914787925163e-01
1.826518914787925163e-01
2.063431410011463407e-01
2.063431410011463407e-01
2.063431410011463407e-01
1.830340084065724127e-01
1.830340084065724127e-01
2.009935040122277361e-01
2.009935040122277361e-01
2.009935040122277361e-01
1.922048146732900364e-01
1.922048146732900364e-01
1.925869316010699328e-01
1.925869316010699328e-01
1.753916698509744021e-01
1.753916698509744021e-01
1.753916698509744021e-01
1.746274359954146094e-01
1.746274359954146094e-01
1.948796331677493388e-01
1.948796331677493388e-01
1.948796331677493388e-01
1.918226977455101123e-01
1.918226977455101123e-01
1.654566297286969856e-01
1.654566297286969856e-01
1.654566297286969856e-01
1.944975162399694424e-01
1.944975162399694424e-01
1.887657623232709136e-01
1.887657623232709136e-01
1.887657623232709136e-01
1.849445930454719222e-01
1.849445930454719222e-01
1.830340084065724127e-01
1.830340084065724127e-01
1.830340084065724127e-01
1.792128391287733935e-01
1.792128391287733935e-01
1.677493312953763915e-01
1.677493312953763915e-01
1.677493312953763915e-01
1.734810852120748925e-01
1.734810852120748925e-01
1.539931218952999559e-01
1.539931218952999559e-01
1.539931218952999559e-01
1.494077187619411440e-01
1.494077187619411440e-01
1.643102789453572687e-01
1.643102789453572687e-01
1.643102789453572687e-01
1.769201375620939876e-01
1.769201375620939876e-01
1.715705005731753829e-01
1.715705005731753829e-01
1.715705005731753829e-01
1.432938479174627466e-01
1.432938479174627466e-01
1.417653802063431334e-01
1.417653802063431334e-01
1.417653802063431334e-01
1.452044325563622562e-01
1.452044325563622562e-01
1.658387466564768820e-01
1.658387466564768820e-01
1.658387466564768820e-01
1.329766908674054338e-01
1.329766908674054338e-01
1.654566297286969856e-01
1.654566297286969856e-01
1.654566297286969856e-01
1.398547955674436516e-01
1.398547955674436516e-01
1.585785250286587678e-01
1.585785250286587678e-01
1.585785250286587678e-01
1.410011463507833407e-01
1.410011463507833407e-01
1.257164692395873196e-01
1.257164692395873196e-01
1.257164692395873196e-01
1.310661062285059242e-01
1.310661062285059242e-01
1.280091708062667255e-01
1.280091708062667255e-01
1.280091708062667255e-01
1.226595338173481070e-01
1.226595338173481070e-01
1.245701184562476166e-01
1.245701184562476166e-01
1.245701184562476166e-01
1.310661062285059242e-01
1.310661062285059242e-01
1.318303400840657169e-01
1.318303400840657169e-01
1.318303400840657169e-01
1.471150171952617380e-01
1.471150171952617380e-01
1.222774168895682106e-01
1.222774168895682106e-01
1.222774168895682106e-01
1.169277799006495921e-01
1.169277799006495921e-01
1.241880015284677063e-01
1.241880015284677063e-01
1.241880015284677063e-01
1.260985861673672159e-01
1.260985861673672159e-01
1.146350783339702001e-01
1.146350783339702001e-01
1.146350783339702001e-01
1.398547955674436516e-01
1.398547955674436516e-01
1.283912877340466219e-01
1.283912877340466219e-01
1.283912877340466219e-01
1.215131830340084040e-01
1.215131830340084040e-01
1.314482231562858205e-01
1.314482231562858205e-01
1.314482231562858205e-01
1.390905617118838311e-01
1.390905617118838311e-01
1.295376385173863110e-01
1.295376385173863110e-01
1.295376385173863110e-01
1.176920137562093988e-01
1.176920137562093988e-01
1.207489491784486113e-01
1.207489491784486113e-01
1.207489491784486113e-01
1.180741306839892951e-01
1.180741306839892951e-01
1.062285059228123829e-01
1.062285059228123829e-01
1.062285059228123829e-01
1.066106228505922793e-01
1.066106228505922793e-01
1.379442109285441420e-01
1.379442109285441420e-01
1.379442109285441420e-01
1.176920137562093988e-01
1.176920137562093988e-01
1.207489491784486113e-01
1.207489491784486113e-01
1.207489491784486113e-01
1.050821551394726799e-01
1.050821551394726799e-01
1.218952999617883004e-01
1.218952999617883004e-01
1.218952999617883004e-01
1.196025983951089083e-01
1.196025983951089083e-01
1.092854413450515816e-01
1.092854413450515816e-01
1.092854413450515816e-01
1.085212074894917889e-01
1.085212074894917889e-01
1.188383645395491017e-01
1.188383645395491017e-01
1.188383645395491017e-01
1.035536874283530806e-01
1.035536874283530806e-01
1.222774168895682106e-01
1.222774168895682106e-01
1.222774168895682106e-01
1.306839893007260278e-01
1.306839893007260278e-01
1.333588077951853301e-01
1.333588077951853301e-01
1.333588077951853301e-01
1.146350783339702001e-01
1.146350783339702001e-01
1.111960259839510912e-01
1.111960259839510912e-01
1.111960259839510912e-01
1.134887275506304971e-01
1.134887275506304971e-01
1.348872755063049156e-01
1.348872755063049156e-01
1.348872755063049156e-01
1.322124570118456133e-01
1.322124570118456133e-01
1.027894535727932740e-01
1.027894535727932740e-01
1.027894535727932740e-01
1.081390905617118786e-01
1.081390905617118786e-01
1.027894535727932740e-01
1.027894535727932740e-01
1.027894535727932740e-01
1.230416507451280034e-01
1.230416507451280034e-01
1.050821551394726799e-01
1.050821551394726799e-01
1.050821551394726799e-01
1.295376385173863110e-01
1.295376385173863110e-01
1.322124570118456133e-01
1.322124570118456133e-01
1.322124570118456133e-01
1.196025983951089083e-01
1.196025983951089083e-01
1.081390905617118786e-01
1.081390905617118786e-01
1.081390905617118786e-01
1.027894535727932740e-01
1.027894535727932740e-01
1.241880015284677063e-01
1.241880015284677063e-01
1.241880015284677063e-01
1.092854413450515816e-01
1.092854413450515816e-01
1.176920137562093988e-01
1.176920137562093988e-01
1.176920137562093988e-01
1.001146350783339717e-01
1.001146350783339717e-01
1.024073366450133776e-01
1.024073366450133776e-01
1.299197554451662073e-01
1.299197554451662073e-01
1.299197554451662073e-01
1.127244936950706905e-01
1.127244936950706905e-01
9.896828429499426871e-02
9.896828429499426871e-02
9.896828429499426871e-02
1.226595338173481070e-01
1.226595338173481070e-01
9.820405043943446211e-02
9.820405043943446211e-02
9.820405043943446211e-02
1.050821551394726799e-01
1.050821551394726799e-01
1.031715705005731704e-01
1.031715705005731704e-01
1.031715705005731704e-01
9.782193351165456574e-02
9.782193351165456574e-02
1.131066106228505869e-01
1.131066106228505869e-01
1.131066106228505869e-01
1.218952999617883004e-01
1.218952999617883004e-01
9.667558272831486277e-02
9.667558272831486277e-02
9.667558272831486277e-02
9.896828429499426871e-02
9.896828429499426871e-02
1.024073366450133776e-01
1.024073366450133776e-01
1.024073366450133776e-01
1.012609858616736747e-01
1.012609858616736747e-01
1.043179212839128733e-01
1.043179212839128733e-01
1.043179212839128733e-01
1.249522353840275130e-01
1.249522353840275130e-01
9.935040122277416508e-02
9.935040122277416508e-02
9.935040122277416508e-02
1.073748567061520859e-01
1.073748567061520859e-01
1.027894535727932740e-01
1.027894535727932740e-01
1.027894535727932740e-01
1.131066106228505869e-01
1.131066106228505869e-01
1.146350783339702001e-01
1.146350783339702001e-01
1.146350783339702001e-01
9.705769965609475913e-02
9.705769965609475913e-02
1.001146350783339717e-01
1.001146350783339717e-01
1.001146350783339717e-01
9.743981658387466938e-02
9.743981658387466938e-02
1.268628200229270087e-01
1.268628200229270087e-01
1.268628200229270087e-01
1.253343523118074232e-01
1.253343523118074232e-01
9.896828429499426871e-02
9.896828429499426871e-02
9.896828429499426871e-02
1.035536874283530806e-01
1.035536874283530806e-01
1.157814291173099031e-01
1.157814291173099031e-01
1.157814291173099031e-01
9.514711501719526343e-02
9.514711501719526343e-02
1.253343523118074232e-01
1.253343523118074232e-01
1.253343523118074232e-01
1.192204814673289981e-01
1.192204814673289981e-01
9.514711501719526343e-02
9.514711501719526343e-02
9.514711501719526343e-02
1.104317921283912846e-01
1.104317921283912846e-01
1.085212074894917889e-01
1.085212074894917889e-01
1.085212074894917889e-01
9.400076423385556046e-02
9.400076423385556046e-02
9.858616736721437235e-02
9.858616736721437235e-02
9.858616736721437235e-02
1.096675582728314918e-01
1.096675582728314918e-01
1.016431027894535710e-01
1.016431027894535710e-01
1.016431027894535710e-01
1.100496752006113882e-01
1.100496752006113882e-01
1.050821551394726799e-01
1.050821551394726799e-01
1.050821551394726799e-01
1.039358043561329770e-01
1.039358043561329770e-01
1.291555215896064146e-01
1.291555215896064146e-01
1.291555215896064146e-01
1.104317921283912846e-01
1.104317921283912846e-01
9.820405043943446211e-02
9.820405043943446211e-02
9.820405043943446211e-02
9.438288116163545682e-02
9.438288116163545682e-02
1.226595338173481070e-01
1.226595338173481070e-01
1.226595338173481070e-01
1.081390905617118786e-01
1.081390905617118786e-01
1.184562476117692054e-01
1.184562476117692054e-01
1.184562476117692054e-01
1.096675582728314918e-01
1.096675582728314918e-01
1.031715705005731704e-01
1.031715705005731704e-01
1.031715705005731704e-01
1.211310661062285077e-01
1.211310661062285077e-01
1.104317921283912846e-01
1.104317921283912846e-01
1.104317921283912846e-01
1.306839893007260278e-01
1.306839893007260278e-01
1.272449369507069050e-01
1.272449369507069050e-01
1.272449369507069050e-01
1.260985861673672159e-01
1.260985861673672159e-01
1.111960259839510912e-01
1.111960259839510912e-01
1.111960259839510912e-01
1.134887275506304971e-01
1.134887275506304971e-01
1.192204814673289981e-01
1.192204814673289981e-01
1.192204814673289981e-01
1.455865494841421526e-01
1.455865494841421526e-01
1.329766908674054338e-01
1.329766908674054338e-01
1.329766908674054338e-01
1.367978601452044252e-01
1.367978601452044252e-01
1.394726786396637275e-01
1.394726786396637275e-01
1.394726786396637275e-01
1.513183034008406536e-01
1.513183034008406536e-01
1.627818112342376833e-01
1.627818112342376833e-01
1.627818112342376833e-01
1.581964081008788714e-01
1.581964081008788714e-01
1.761559037065341948e-01
1.761559037065341948e-01
1.761559037065341948e-01
2.029040886511272457e-01
2.029040886511272457e-01
2.078716087122659539e-01
2.078716087122659539e-01
2.078716087122659539e-01
2.204814673290026728e-01
2.204814673290026728e-01
2.185708826901031632e-01
2.185708826901031632e-01
2.185708826901031632e-01
2.239205196790217678e-01
2.239205196790217678e-01
2.414978983568972226e-01
2.414978983568972226e-01
2.414978983568972226e-01
2.434084829957967044e-01
2.434084829957967044e-01
2.499044707680550259e-01
2.499044707680550259e-01
2.499044707680550259e-01
2.709209017959495758e-01
2.709209017959495758e-01
2.976690867405425989e-01
2.976690867405425989e-01
2.976690867405425989e-01
2.969048528849828061e-01
2.969048528849828061e-01
3.240351547573557256e-01
3.240351547573557256e-01
3.240351547573557256e-01
3.171570500573175355e-01
3.171570500573175355e-01
3.198318685517768656e-01
3.198318685517768656e-01
3.351165456629728867e-01
3.351165456629728867e-01
3.351165456629728867e-01
3.549866259075277197e-01
3.549866259075277197e-01
3.565150936186473052e-01
3.565150936186473052e-01
3.565150936186473052e-01
3.637753152464653916e-01
3.637753152464653916e-01
3.844096293465800729e-01
3.844096293465800729e-01
3.844096293465800729e-01
3.813526939243408465e-01
3.813526939243408465e-01
3.889950324799388848e-01
3.889950324799388848e-01
3.889950324799388848e-01
4.077187619411539732e-01
4.077187619411539732e-01
4.218570882690103052e-01
4.218570882690103052e-01
4.218570882690103052e-01
4.291173098968284472e-01
4.291173098968284472e-01
4.191822697745510307e-01
4.191822697745510307e-01
4.191822697745510307e-01
4.138326327856324260e-01
4.138326327856324260e-01
4.325563622468475145e-01
4.325563622468475145e-01
4.325563622468475145e-01
4.486052732136033838e-01
4.486052732136033838e-01
4.344669468857470518e-01
4.344669468857470518e-01
4.344669468857470518e-01
4.539549102025219884e-01
4.539549102025219884e-01
4.505158578525028656e-01
4.505158578525028656e-01
4.505158578525028656e-01
4.638899503247994049e-01
4.638899503247994049e-01
4.375238823079862227e-01
4.375238823079862227e-01
4.375238823079862227e-01
4.417271685135651382e-01
4.417271685135651382e-01
4.417271685135651382e-01
4.417271685135651382e-01
4.417271685135651382e-01
4.447841039358043647e-01
4.447841039358043647e-01
4.543370271303018848e-01
4.543370271303018848e-01
4.543370271303018848e-01
4.444019870080244683e-01
4.444019870080244683e-01
4.470768055024837428e-01
4.470768055024837428e-01
4.470768055024837428e-01
4.405808177302254491e-01
4.405808177302254491e-01
4.677111196025983686e-01
4.677111196025983686e-01
4.677111196025983686e-01
4.615972487581199712e-01
4.615972487581199712e-01
4.631257164692396122e-01
4.631257164692396122e-01
4.631257164692396122e-01
4.516622086358425547e-01
4.516622086358425547e-01
4.424914023691249310e-01
4.424914023691249310e-01
4.424914023691249310e-01
4.680932365303783205e-01
4.680932365303783205e-01
4.684753534581582168e-01
4.684753534581582168e-01
4.684753534581582168e-01
4.677111196025983686e-01
4.677111196025983686e-01
4.440198700802445719e-01
4.440198700802445719e-01
4.440198700802445719e-01
4.436377531524646756e-01
4.436377531524646756e-01
4.375238823079862227e-01
4.375238823079862227e-01
4.375238823079862227e-01
4.463125716469239501e-01
4.463125716469239501e-01
4.428735192969048273e-01
4.428735192969048273e-01
4.428735192969048273e-01
4.573939625525410557e-01
4.573939625525410557e-01
4.260603744745892207e-01
4.260603744745892207e-01
4.260603744745892207e-01
4.230034390523499943e-01
4.230034390523499943e-01
4.176538020634313897e-01
4.176538020634313897e-01
4.176538020634313897e-01
4.272067252579289098e-01
4.272067252579289098e-01
4.260603744745892207e-01
4.260603744745892207e-01
4.260603744745892207e-01
4.176538020634313897e-01
4.176538020634313897e-01
4.119220481467328887e-01
4.119220481467328887e-01
4.119220481467328887e-01
4.069545280855941805e-01
4.069545280855941805e-01
4.103935804356133032e-01
4.103935804356133032e-01
4.103935804356133032e-01
4.222392051967902016e-01
4.222392051967902016e-01
4.103935804356133032e-01
4.103935804356133032e-01
4.103935804356133032e-01
4.161253343523118042e-01
4.161253343523118042e-01
3.962552541077569712e-01
3.962552541077569712e-01
3.962552541077569712e-01
4.084829957967138214e-01
4.084829957967138214e-01
3.886129155521589329e-01
3.886129155521589329e-01
3.886129155521589329e-01
3.939625525410775930e-01
3.939625525410775930e-01
3.840275124188001765e-01
3.840275124188001765e-01
3.840275124188001765e-01
3.824990447076805355e-01
3.824990447076805355e-01
3.717997707298433263e-01
3.717997707298433263e-01
3.717997707298433263e-01
3.656858998853649290e-01
3.656858998853649290e-01
3.729461215131830154e-01
3.729461215131830154e-01
3.729461215131830154e-01
3.698891860909438445e-01
3.698891860909438445e-01
3.752388230798624491e-01
3.752388230798624491e-01
3.752388230798624491e-01
3.500191058463890115e-01
3.500191058463890115e-01
3.442873519296905105e-01
3.442873519296905105e-01
3.442873519296905105e-01
3.526939243408482860e-01
3.526939243408482860e-01
3.381734810852120576e-01
3.381734810852120576e-01
3.381734810852120576e-01
3.343523118074130940e-01
3.343523118074130940e-01
3.507833397019488042e-01
3.507833397019488042e-01
3.507833397019488042e-01
3.450515857852503032e-01
3.450515857852503032e-01
3.358807795185326794e-01
3.358807795185326794e-01
3.358807795185326794e-01
3.076041268628200154e-01
3.076041268628200154e-01
3.034008406572410999e-01
3.034008406572410999e-01
3.034008406572410999e-01
3.034008406572410999e-01
3.034008406572410999e-01
2.904088651127245124e-01
2.904088651127245124e-01
2.904088651127245124e-01
2.896446312571647197e-01
2.896446312571647197e-01
2.743599541459686431e-01
2.743599541459686431e-01
2.743599541459686431e-01
2.831486434849063705e-01
2.831486434849063705e-01
2.651891478792510748e-01
2.651891478792510748e-01
2.651891478792510748e-01
2.613679786014520556e-01
2.613679786014520556e-01
2.724493695070691612e-01
2.724493695070691612e-01
2.670997325181505566e-01
2.670997325181505566e-01
2.670997325181505566e-01
2.449369507069163177e-01
2.449369507069163177e-01
2.514329384791746391e-01
2.514329384791746391e-01
2.514329384791746391e-01
2.342376767290791084e-01
2.342376767290791084e-01
2.529614061902942246e-01
2.529614061902942246e-01
2.529614061902942246e-01
2.292701566679404002e-01
2.292701566679404002e-01
2.323270920901795988e-01
2.323270920901795988e-01
2.323270920901795988e-01
2.491402369124952332e-01
2.491402369124952332e-01
2.491402369124952332e-01
2.491402369124952332e-01
2.491402369124952332e-01
2.300343905235001929e-01
2.300343905235001929e-01
2.395873137179977130e-01
2.395873137179977130e-01
2.395873137179977130e-01
2.430263660680168081e-01
2.430263660680168081e-01
2.342376767290791084e-01
2.342376767290791084e-01
2.342376767290791084e-01
2.395873137179977130e-01
2.395873137179977130e-01
2.327092090179594952e-01
2.327092090179594952e-01
2.327092090179594952e-01
2.120748949178448695e-01
2.120748949178448695e-01
2.151318303400840681e-01
2.151318303400840681e-01
2.151318303400840681e-01
2.418800152846771190e-01
2.418800152846771190e-01
2.418800152846771190e-01
2.418800152846771190e-01
2.418800152846771190e-01
2.124570118456247658e-01
2.124570118456247658e-01
2.350019105846389011e-01
2.350019105846389011e-01
2.350019105846389011e-01
2.086358425678257467e-01
2.086358425678257467e-01
2.350019105846389011e-01
2.350019105846389011e-01
2.350019105846389011e-01
2.143675964845242754e-01
2.143675964845242754e-01
2.388230798624378926e-01
2.388230798624378926e-01
2.388230798624378926e-01
2.319449751623997025e-01
2.319449751623997025e-01
2.411157814291172985e-01
2.411157814291172985e-01
2.411157814291172985e-01
2.136033626289644549e-01
2.136033626289644549e-01
2.170424149789835777e-01
2.170424149789835777e-01
2.170424149789835777e-01
2.208635842567825691e-01
2.208635842567825691e-01
2.296522735957202965e-01
2.296522735957202965e-01
2.296522735957202965e-01
2.315628582346198061e-01
2.315628582346198061e-01
2.223920519679021823e-01
2.223920519679021823e-01
2.223920519679021823e-01
2.147497134123041718e-01
2.147497134123041718e-01
2.109285441345051526e-01
2.109285441345051526e-01
2.109285441345051526e-01
2.273595720290408906e-01
2.273595720290408906e-01
2.327092090179594952e-01
2.327092090179594952e-01
2.327092090179594952e-01
2.399694306457776094e-01
2.399694306457776094e-01
2.071073748567061612e-01
2.071073748567061612e-01
2.071073748567061612e-01
2.086358425678257467e-01
2.086358425678257467e-01
2.296522735957202965e-01
2.296522735957202965e-01
2.296522735957202965e-01
2.327092090179594952e-01
2.327092090179594952e-01
2.174245319067634741e-01
2.174245319067634741e-01
2.174245319067634741e-01
2.292701566679404002e-01
2.292701566679404002e-01
2.113106610622850490e-01
2.113106610622850490e-01
2.113106610622850490e-01
2.128391287734046622e-01
2.128391287734046622e-01
2.097821933511654635e-01
2.097821933511654635e-01
2.097821933511654635e-01
2.281238058846006833e-01
2.281238058846006833e-01
1.956438670233091315e-01
1.956438670233091315e-01
1.956438670233091315e-01
2.002292701566679434e-01
2.002292701566679434e-01
2.147497134123041718e-01
2.147497134123041718e-01
2.147497134123041718e-01
2.013756209400076325e-01
2.013756209400076325e-01
2.040504394344669348e-01
2.040504394344669348e-01
2.040504394344669348e-01
2.078716087122659539e-01
2.078716087122659539e-01
1.929690485288498292e-01
1.929690485288498292e-01
1.929690485288498292e-01
1.887657623232709136e-01
1.887657623232709136e-01
2.151318303400840681e-01
2.151318303400840681e-01
2.151318303400840681e-01
1.990829193733282265e-01
1.990829193733282265e-01
1.868551776843714041e-01
1.868551776843714041e-01
1.868551776843714041e-01
2.017577378677875566e-01
2.017577378677875566e-01
1.818876576232326958e-01
1.818876576232326958e-01
1.818876576232326958e-01
2.048146732900267553e-01
2.048146732900267553e-01
1.734810852120748925e-01
1.734810852120748925e-01
1.734810852120748925e-01
1.948796331677493388e-01
1.948796331677493388e-01
1.948796331677493388e-01
1.948796331677493388e-01
1.948796331677493388e-01
1.692777990064959770e-01
1.692777990064959770e-01
1.662208635842567783e-01
1.662208635842567783e-01
1.662208635842567783e-01
1.646923958731371929e-01
1.646923958731371929e-01
1.681314482231562879e-01
1.681314482231562879e-01
1.681314482231562879e-01
1.899121131066106305e-01
1.899121131066106305e-01
1.688956820787160806e-01
1.688956820787160806e-01
1.688956820787160806e-01
1.677493312953763915e-01
1.677493312953763915e-01
1.807413068398930067e-01
1.807413068398930067e-01
1.807413068398930067e-01
1.860909438288116113e-01
1.860909438288116113e-01
1.662208635842567783e-01
1.662208635842567783e-01
1.662208635842567783e-01
1.700420328620557975e-01
1.700420328620557975e-01
1.784486052732136008e-01
1.784486052732136008e-01
1.784486052732136008e-01
1.773022544898739117e-01
1.773022544898739117e-01
1.467329002674818417e-01
1.467329002674818417e-01
1.467329002674818417e-01
1.669850974398165711e-01
1.669850974398165711e-01
1.566679403897592582e-01
1.566679403897592582e-01
1.566679403897592582e-01
1.650745128009170892e-01
1.650745128009170892e-01
1.570500573175391545e-01
1.570500573175391545e-01
1.536110049675200595e-01
1.536110049675200595e-01
1.536110049675200595e-01
1.375620940007642456e-01
1.375620940007642456e-01
1.669850974398165711e-01
1.669850974398165711e-01
1.669850974398165711e-01
1.666029805120366747e-01
1.666029805120366747e-01
1.578142911730989750e-01
1.578142911730989750e-01
1.578142911730989750e-01
1.452044325563622562e-01
1.452044325563622562e-01
1.432938479174627466e-01
1.432938479174627466e-01
1.432938479174627466e-01
1.406190294230034443e-01
1.406190294230034443e-01
1.432938479174627466e-01
1.432938479174627466e-01
1.432938479174627466e-01
1.341230416507451229e-01
1.341230416507451229e-01
1.482613679786014549e-01
1.482613679786014549e-01
1.482613679786014549e-01
1.494077187619411440e-01
1.494077187619411440e-01
1.429117309896828503e-01
1.429117309896828503e-01
1.429117309896828503e-01
1.234237676729079136e-01
1.234237676729079136e-01
1.318303400840657169e-01
1.318303400840657169e-01
1.318303400840657169e-01
1.413832632785632371e-01
1.413832632785632371e-01
1.211310661062285077e-01
1.211310661062285077e-01
1.211310661062285077e-01
1.478792510508215585e-01
1.478792510508215585e-01
1.211310661062285077e-01
1.211310661062285077e-01
1.211310661062285077e-01
1.429117309896828503e-01
1.429117309896828503e-01
1.257164692395873196e-01
1.257164692395873196e-01
1.257164692395873196e-01
1.249522353840275130e-01
1.249522353840275130e-01
1.211310661062285077e-01
1.211310661062285077e-01
1.211310661062285077e-01
1.318303400840657169e-01
1.318303400840657169e-01
1.402369124952235480e-01
1.402369124952235480e-01
1.402369124952235480e-01
1.146350783339702001e-01
1.146350783339702001e-01
1.387084447841039347e-01
1.387084447841039347e-01
1.387084447841039347e-01
1.165456629728696958e-01
1.165456629728696958e-01
1.318303400840657169e-01
1.318303400840657169e-01
1.318303400840657169e-01
1.387084447841039347e-01
1.387084447841039347e-01
1.253343523118074232e-01
1.253343523118074232e-01
1.253343523118074232e-01
1.119602598395108839e-01
1.119602598395108839e-01
1.134887275506304971e-01
1.134887275506304971e-01
1.134887275506304971e-01
1.111960259839510912e-01
1.111960259839510912e-01
1.199847153228888047e-01
1.199847153228888047e-01
1.199847153228888047e-01
1.173098968284295024e-01
1.173098968284295024e-01
1.111960259839510912e-01
1.111960259839510912e-01
1.111960259839510912e-01
1.379442109285441420e-01
1.379442109285441420e-01
1.348872755063049156e-01
1.348872755063049156e-01
1.348872755063049156e-01
1.199847153228888047e-01
1.199847153228888047e-01
1.066106228505922793e-01
1.066106228505922793e-01
1.066106228505922793e-01
1.173098968284295024e-01
1.173098968284295024e-01
1.085212074894917889e-01
1.085212074894917889e-01
1.085212074894917889e-01
1.367978601452044252e-01
1.367978601452044252e-01
1.096675582728314918e-01
1.096675582728314918e-01
1.096675582728314918e-01
1.085212074894917889e-01
1.085212074894917889e-01
1.318303400840657169e-01
1.318303400840657169e-01
1.318303400840657169e-01
1.322124570118456133e-01
1.322124570118456133e-01
1.257164692395873196e-01
1.257164692395873196e-01
1.257164692395873196e-01
1.253343523118074232e-01
1.253343523118074232e-01
1.253343523118074232e-01
1.253343523118074232e-01
1.253343523118074232e-01
1.104317921283912846e-01
1.104317921283912846e-01
1.295376385173863110e-01
1.295376385173863110e-01
1.295376385173863110e-01
9.935040122277416508e-02
9.935040122277416508e-02
1.333588077951853301e-01
1.333588077951853301e-01
1.333588077951853301e-01
1.035536874283530806e-01
1.035536874283530806e-01
1.303018723729461315e-01
1.303018723729461315e-01
1.303018723729461315e-01
1.054642720672525763e-01
1.054642720672525763e-01
1.161635460450897994e-01
1.161635460450897994e-01
1.161635460450897994e-01
1.008788689338937783e-01
1.008788689338937783e-01
1.115781429117309875e-01
1.115781429117309875e-01
1.115781429117309875e-01
1.215131830340084040e-01
1.215131830340084040e-01
1.043179212839128733e-01
1.043179212839128733e-01
1.043179212839128733e-01
1.104317921283912846e-01
1.104317921283912846e-01
1.196025983951089083e-01
1.196025983951089083e-01
1.196025983951089083e-01
1.238058846006878100e-01
1.238058846006878100e-01
1.134887275506304971e-01
1.134887275506304971e-01
1.134887275506304971e-01
1.245701184562476166e-01
1.245701184562476166e-01
1.020252197172334674e-01
1.020252197172334674e-01
1.020252197172334674e-01
1.280091708062667255e-01
1.280091708062667255e-01
1.016431027894535710e-01
1.016431027894535710e-01
1.016431027894535710e-01
1.165456629728696958e-01
1.165456629728696958e-01
1.096675582728314918e-01
1.096675582728314918e-01
1.096675582728314918e-01
9.552923194497515980e-02
9.552923194497515980e-02
1.253343523118074232e-01
1.253343523118074232e-01
1.253343523118074232e-01
1.234237676729079136e-01
1.234237676729079136e-01
1.138708444784103935e-01
1.138708444784103935e-01
1.138708444784103935e-01
1.031715705005731704e-01
1.031715705005731704e-01
1.104317921283912846e-01
1.104317921283912846e-01
1.104317921283912846e-01
1.249522353840275130e-01
1.249522353840275130e-01
9.629346580053496640e-02
9.629346580053496640e-02
1.123423767672907941e-01
1.123423767672907941e-01
1.123423767672907941e-01
1.138708444784103935e-01
1.138708444784103935e-01
9.629346580053496640e-02
9.629346580053496640e-02
9.629346580053496640e-02
1.234237676729079136e-01
1.234237676729079136e-01
1.222774168895682106e-01
1.222774168895682106e-01
1.222774168895682106e-01
1.073748567061520859e-01
1.073748567061520859e-01
1.165456629728696958e-01
1.165456629728696958e-01
1.165456629728696958e-01
1.218952999617883004e-01
1.218952999617883004e-01
9.400076423385556046e-02
9.400076423385556046e-02
9.400076423385556046e-02
1.050821551394726799e-01
1.050821551394726799e-01
1.062285059228123829e-01
1.062285059228123829e-01
1.062285059228123829e-01
8.903324417271685220e-02
8.903324417271685220e-02
8.979747802827665881e-02
8.979747802827665881e-02
8.979747802827665881e-02
1.069927397783721756e-01
1.069927397783721756e-01
1.016431027894535710e-01
1.016431027894535710e-01
1.016431027894535710e-01
1.142529614061902898e-01
1.142529614061902898e-01
1.131066106228505869e-01
1.131066106228505869e-01
1.131066106228505869e-01
1.012609858616736747e-01
1.012609858616736747e-01
1.173098968284295024e-01
1.173098968284295024e-01
1.173098968284295024e-01
9.705769965609475913e-02
9.705769965609475913e-02
9.132594573939625815e-02
9.132594573939625815e-02
9.132594573939625815e-02
1.111960259839510912e-01
1.111960259839510912e-01
9.896828429499426871e-02
9.896828429499426871e-02
9.896828429499426871e-02
9.858616736721437235e-02
9.858616736721437235e-02
1.153993121895299928e-01
1.153993121895299928e-01
1.153993121895299928e-01
8.865112724493695584e-02
8.865112724493695584e-02
1.165456629728696958e-01
1.165456629728696958e-01
1.165456629728696958e-01
8.979747802827665881e-02
8.979747802827665881e-02
9.361864730607566409e-02
9.361864730607566409e-02
9.361864730607566409e-02
9.629346580053496640e-02
9.629346580053496640e-02
1.257164692395873196e-01
1.257164692395873196e-01
1.257164692395873196e-01
1.230416507451280034e-01
1.230416507451280034e-01
1.001146350783339717e-01
1.001146350783339717e-01
1.001146350783339717e-01
1.123423767672907941e-01
1.123423767672907941e-01
1.111960259839510912e-01
1.111960259839510912e-01
1.111960259839510912e-01
1.066106228505922793e-01
1.066106228505922793e-01
1.119602598395108839e-01
1.119602598395108839e-01
1.119602598395108839e-01
1.459686664119220489e-01
1.459686664119220489e-01
1.260985861673672159e-01
1.260985861673672159e-01
1.260985861673672159e-01
1.222774168895682106e-01
1.222774168895682106e-01
1.574321742453190787e-01
1.574321742453190787e-01
1.574321742453190787e-01
1.616354604508979664e-01
1.616354604508979664e-01
1.757737867787542985e-01
1.757737867787542985e-01
1.757737867787542985e-01
1.792128391287733935e-01
1.792128391287733935e-01
1.681314482231562879e-01
1.681314482231562879e-01
1.681314482231562879e-01
1.681314482231562879e-01
1.681314482231562879e-01
1.914405808177302160e-01
1.914405808177302160e-01
1.914405808177302160e-01
1.914405808177302160e-01
1.914405808177302160e-01
2.063431410011463407e-01
2.063431410011463407e-01
2.063431410011463407e-01
2.338555598012991843e-01
2.338555598012991843e-01
2.365303782957585144e-01
2.365303782957585144e-01
2.365303782957585144e-01
2.361482613679785902e-01
2.361482613679785902e-01
2.693924340848299348e-01
2.693924340848299348e-01
2.693924340848299348e-01
2.900267481849446161e-01
2.900267481849446161e-01
2.953763851738632207e-01
2.953763851738632207e-01
2.953763851738632207e-01
2.839128773404661632e-01
2.839128773404661632e-01
3.259457393962552629e-01
3.259457393962552629e-01
3.259457393962552629e-01
3.076041268628200154e-01
3.076041268628200154e-01
3.439052350019105586e-01
3.439052350019105586e-01
3.439052350019105586e-01
3.393198318685518022e-01
3.393198318685518022e-01
3.515475735575085969e-01
3.515475735575085969e-01
3.515475735575085969e-01
3.549866259075277197e-01
3.549866259075277197e-01
3.909056171188383666e-01
3.909056171188383666e-01
3.909056171188383666e-01
3.714176538020634299e-01
3.714176538020634299e-01
3.966373710355368676e-01
3.966373710355368676e-01
3.966373710355368676e-01
3.958731371799770749e-01
3.958731371799770749e-01
4.012227741688956795e-01
4.012227741688956795e-01
4.012227741688956795e-01
4.145968666411922188e-01
4.145968666411922188e-01
4.279709591134887026e-01
4.279709591134887026e-01
4.279709591134887026e-01
4.168895682078715970e-01
4.168895682078715970e-01
4.547191440580817812e-01
4.547191440580817812e-01
4.547191440580817812e-01
4.409629346580053455e-01
4.409629346580053455e-01
4.424914023691249310e-01
4.424914023691249310e-01
4.424914023691249310e-01
4.665647688192586795e-01
4.665647688192586795e-01
4.646541841803591977e-01
4.646541841803591977e-01
4.646541841803591977e-01
4.474589224302636392e-01
4.474589224302636392e-01
4.742071073748567178e-01
4.742071073748567178e-01
4.742071073748567178e-01
4.680932365303783205e-01
4.680932365303783205e-01
4.631257164692396122e-01
4.631257164692396122e-01
4.631257164692396122e-01
4.615972487581199712e-01
4.615972487581199712e-01
4.803209782193351152e-01
4.803209782193351152e-01
4.658005349636988868e-01
4.658005349636988868e-01
4.658005349636988868e-01
4.539549102025219884e-01
4.539549102025219884e-01
4.581581964081009040e-01
4.581581964081009040e-01
4.581581964081009040e-01
4.757355750859763033e-01
4.757355750859763033e-01
4.570118456247611594e-01
4.570118456247611594e-01
4.570118456247611594e-01
4.814673290026748043e-01
4.814673290026748043e-01
4.520443255636224511e-01
4.520443255636224511e-01
4.520443255636224511e-01
4.505158578525028656e-01
4.505158578525028656e-01
4.703859380970576987e-01
4.703859380970576987e-01
4.703859380970576987e-01
4.535727932747420921e-01
4.535727932747420921e-01
4.501337409247229693e-01
4.501337409247229693e-01
4.501337409247229693e-01
4.619793656858998676e-01
4.619793656858998676e-01
4.612151318303400749e-01
4.612151318303400749e-01
4.612151318303400749e-01
4.516622086358425547e-01
4.516622086358425547e-01
4.585403133358808003e-01
4.585403133358808003e-01
4.585403133358808003e-01
4.589224302636606967e-01
