2.216278181123423896e-01
2.216278181123423896e-01
2.067252579289262648e-01
2.067252579289262648e-01
2.067252579289262648e-01
2.197172334734428800e-01
2.197172334734428800e-01
2.082537256400458503e-01
2.082537256400458503e-01
2.082537256400458503e-01
2.124570118456247658e-01
2.124570118456247658e-01
2.197172334734428800e-01
2.197172334734428800e-01
2.197172334734428800e-01
2.162781811234237572e-01
2.162781811234237572e-01
2.162781811234237572e-01
2.162781811234237572e-01
2.162781811234237572e-01
2.174245319067634741e-01
2.174245319067634741e-01
2.044325563622468589e-01
2.044325563622468589e-01
2.044325563622468589e-01
2.116927779900649731e-01
2.116927779900649731e-01
2.074894917844860576e-01
2.074894917844860576e-01
2.074894917844860576e-01
1.998471532288880470e-01
1.998471532288880470e-01
2.009935040122277361e-01
2.009935040122277361e-01
2.009935040122277361e-01
2.158960641956438609e-01
2.158960641956438609e-01
1.948796331677493388e-01
1.948796331677493388e-01
1.948796331677493388e-01
1.983186855177684338e-01
1.983186855177684338e-01
2.063431410011463407e-01
2.063431410011463407e-01
2.063431410011463407e-01
2.017577378677875566e-01
2.017577378677875566e-01
2.006113870844478397e-01
2.006113870844478397e-01
2.006113870844478397e-01
2.067252579289262648e-01
2.067252579289262648e-01
1.906763469621704232e-01
1.906763469621704232e-01
1.906763469621704232e-01
1.914405808177302160e-01
1.914405808177302160e-01
2.032862055789071420e-01
2.032862055789071420e-01
2.032862055789071420e-01
1.941153993121895183e-01
1.941153993121895183e-01
2.006113870844478397e-01
2.006113870844478397e-01
2.006113870844478397e-01
2.044325563622468589e-01
2.044325563622468589e-01
2.013756209400076325e-01
2.013756209400076325e-01
2.013756209400076325e-01
1.994650363011081506e-01
1.994650363011081506e-01
1.948796331677493388e-01
1.948796331677493388e-01
1.948796331677493388e-01
2.021398547955674529e-01
2.021398547955674529e-01
1.845624761176920259e-01
1.845624761176920259e-01
1.845624761176920259e-01
1.944975162399694424e-01
1.944975162399694424e-01
1.860909438288116113e-01
1.860909438288116113e-01
1.860909438288116113e-01
1.899121131066106305e-01
1.899121131066106305e-01
1.880015284677111209e-01
1.880015284677111209e-01
1.880015284677111209e-01
1.987008024455483302e-01
1.987008024455483302e-01
1.891478792510508100e-01
1.891478792510508100e-01
1.834161253343523090e-01
1.834161253343523090e-01
1.834161253343523090e-01
1.795949560565533176e-01
1.795949560565533176e-01
1.883836453954910173e-01
1.883836453954910173e-01
1.883836453954910173e-01
1.788307222009934971e-01
1.788307222009934971e-01
1.860909438288116113e-01
1.860909438288116113e-01
1.860909438288116113e-01
1.811234237676729031e-01
1.811234237676729031e-01
1.872372946121513282e-01
1.872372946121513282e-01
1.872372946121513282e-01
1.776843714176538080e-01
1.776843714176538080e-01
1.929690485288498292e-01
1.929690485288498292e-01
1.929690485288498292e-01
1.837982422621322054e-01
1.837982422621322054e-01
1.860909438288116113e-01
1.860909438288116113e-01
1.860909438288116113e-01
1.868551776843714041e-01
1.868551776843714041e-01
1.818876576232326958e-01
1.818876576232326958e-01
1.818876576232326958e-01
1.899121131066106305e-01
1.899121131066106305e-01
1.795949560565533176e-01
1.795949560565533176e-01
1.795949560565533176e-01
1.914405808177302160e-01
1.914405808177302160e-01
1.815055406954527994e-01
1.815055406954527994e-01
1.815055406954527994e-01
1.719526175009552793e-01
1.719526175009552793e-01
1.880015284677111209e-01
1.880015284677111209e-01
1.880015284677111209e-01
1.899121131066106305e-01
1.899121131066106305e-01
1.799770729843332140e-01
1.799770729843332140e-01
1.799770729843332140e-01
1.845624761176920259e-01
1.845624761176920259e-01
1.753916698509744021e-01
1.753916698509744021e-01
1.753916698509744021e-01
1.818876576232326958e-01
1.818876576232326958e-01
1.757737867787542985e-01
1.757737867787542985e-01
1.757737867787542985e-01
1.834161253343523090e-01
1.834161253343523090e-01
1.784486052732136008e-01
1.784486052732136008e-01
1.784486052732136008e-01
1.688956820787160806e-01
1.688956820787160806e-01
1.761559037065341948e-01
1.761559037065341948e-01
1.761559037065341948e-01
1.692777990064959770e-01
1.692777990064959770e-01
1.685135651509361843e-01
1.685135651509361843e-01
1.685135651509361843e-01
1.708062667176155902e-01
1.708062667176155902e-01
1.765380206343140912e-01
1.765380206343140912e-01
1.765380206343140912e-01
1.780664883454337044e-01
1.780664883454337044e-01
1.673672143675964952e-01
1.673672143675964952e-01
1.673672143675964952e-01
1.788307222009934971e-01
1.788307222009934971e-01
1.688956820787160806e-01
1.688956820787160806e-01
1.688956820787160806e-01
1.746274359954146094e-01
1.746274359954146094e-01
1.654566297286969856e-01
1.654566297286969856e-01
1.654566297286969856e-01
1.616354604508979664e-01
1.616354604508979664e-01
1.757737867787542985e-01
1.757737867787542985e-01
1.757737867787542985e-01
1.654566297286969856e-01
1.654566297286969856e-01
1.727168513565150998e-01
1.727168513565150998e-01
1.727168513565150998e-01
1.639281620175773724e-01
1.639281620175773724e-01
1.715705005731753829e-01
1.715705005731753829e-01
1.715705005731753829e-01
1.784486052732136008e-01
1.784486052732136008e-01
1.623996943064577869e-01
1.623996943064577869e-01
1.623996943064577869e-01
1.639281620175773724e-01
1.639281620175773724e-01
1.658387466564768820e-01
1.658387466564768820e-01
1.658387466564768820e-01
1.723347344287352034e-01
1.723347344287352034e-01
1.738632021398547889e-01
1.738632021398547889e-01
1.738632021398547889e-01
1.734810852120748925e-01
1.734810852120748925e-01
1.646923958731371929e-01
1.646923958731371929e-01
1.646923958731371929e-01
1.730989682842949962e-01
1.730989682842949962e-01
1.750095529231945057e-01
1.750095529231945057e-01
1.750095529231945057e-01
1.639281620175773724e-01
1.639281620175773724e-01
1.685135651509361843e-01
1.685135651509361843e-01
1.685135651509361843e-01
1.711883836453954866e-01
1.711883836453954866e-01
1.643102789453572687e-01
1.643102789453572687e-01
1.643102789453572687e-01
1.666029805120366747e-01
1.666029805120366747e-01
1.723347344287352034e-01
1.723347344287352034e-01
1.723347344287352034e-01
1.623996943064577869e-01
1.623996943064577869e-01
1.620175773786778628e-01
1.620175773786778628e-01
1.620175773786778628e-01
1.730989682842949962e-01
1.730989682842949962e-01
1.666029805120366747e-01
1.666029805120366747e-01
1.666029805120366747e-01
1.685135651509361843e-01
1.685135651509361843e-01
1.715705005731753829e-01
1.715705005731753829e-01
1.715705005731753829e-01
1.662208635842567783e-01
1.662208635842567783e-01
1.666029805120366747e-01
1.666029805120366747e-01
1.666029805120366747e-01
1.631639281620175796e-01
1.631639281620175796e-01
1.547573557508597764e-01
1.547573557508597764e-01
1.547573557508597764e-01
1.597248758119984846e-01
1.597248758119984846e-01
1.639281620175773724e-01
1.639281620175773724e-01
1.639281620175773724e-01
1.593427588842185605e-01
1.593427588842185605e-01
1.532288880397401631e-01
1.532288880397401631e-01
1.532288880397401631e-01
1.677493312953763915e-01
1.677493312953763915e-01
1.601069927397783810e-01
1.601069927397783810e-01
1.601069927397783810e-01
1.597248758119984846e-01
1.597248758119984846e-01
1.623996943064577869e-01
1.623996943064577869e-01
1.623996943064577869e-01
1.608712265953381737e-01
1.608712265953381737e-01
1.578142911730989750e-01
1.578142911730989750e-01
1.669850974398165711e-01
1.669850974398165711e-01
1.669850974398165711e-01
1.616354604508979664e-01
1.616354604508979664e-01
1.639281620175773724e-01
1.639281620175773724e-01
1.639281620175773724e-01
1.696599159342759011e-01
1.696599159342759011e-01
1.608712265953381737e-01
1.608712265953381737e-01
1.608712265953381737e-01
1.559037065341994654e-01
1.559037065341994654e-01
1.658387466564768820e-01
1.658387466564768820e-01
1.658387466564768820e-01
1.620175773786778628e-01
1.620175773786778628e-01
1.578142911730989750e-01
1.578142911730989750e-01
1.578142911730989750e-01
1.620175773786778628e-01
1.620175773786778628e-01
1.685135651509361843e-01
1.685135651509361843e-01
1.685135651509361843e-01
1.738632021398547889e-01
1.738632021398547889e-01
1.566679403897592582e-01
1.566679403897592582e-01
1.566679403897592582e-01
1.696599159342759011e-01
1.696599159342759011e-01
1.608712265953381737e-01
1.608712265953381737e-01
1.608712265953381737e-01
1.711883836453954866e-01
1.711883836453954866e-01
1.757737867787542985e-01
1.757737867787542985e-01
1.757737867787542985e-01
1.734810852120748925e-01
1.734810852120748925e-01
1.555215896064195691e-01
1.555215896064195691e-01
1.555215896064195691e-01
1.616354604508979664e-01
1.616354604508979664e-01
1.677493312953763915e-01
1.677493312953763915e-01
1.677493312953763915e-01
1.520825372564004463e-01
1.520825372564004463e-01
1.715705005731753829e-01
1.715705005731753829e-01
1.715705005731753829e-01
1.639281620175773724e-01
1.639281620175773724e-01
1.612533435231180701e-01
1.612533435231180701e-01
1.612533435231180701e-01
1.627818112342376833e-01
1.627818112342376833e-01
1.532288880397401631e-01
1.532288880397401631e-01
1.532288880397401631e-01
1.570500573175391545e-01
1.570500573175391545e-01
1.681314482231562879e-01
1.681314482231562879e-01
1.681314482231562879e-01
1.666029805120366747e-01
1.666029805120366747e-01
1.612533435231180701e-01
1.612533435231180701e-01
1.612533435231180701e-01
1.589606419564386641e-01
1.589606419564386641e-01
1.646923958731371929e-01
1.646923958731371929e-01
1.646923958731371929e-01
1.585785250286587678e-01
1.585785250286587678e-01
1.612533435231180701e-01
1.612533435231180701e-01
1.612533435231180701e-01
1.666029805120366747e-01
1.666029805120366747e-01
1.597248758119984846e-01
1.597248758119984846e-01
1.597248758119984846e-01
1.635460450897974760e-01
1.635460450897974760e-01
1.666029805120366747e-01
1.666029805120366747e-01
1.666029805120366747e-01
1.566679403897592582e-01
1.566679403897592582e-01
1.681314482231562879e-01
1.681314482231562879e-01
1.681314482231562879e-01
1.620175773786778628e-01
1.620175773786778628e-01
1.555215896064195691e-01
1.555215896064195691e-01
1.555215896064195691e-01
1.635460450897974760e-01
1.635460450897974760e-01
1.585785250286587678e-01
1.585785250286587678e-01
1.585785250286587678e-01
1.597248758119984846e-01
1.597248758119984846e-01
1.704241497898356938e-01
1.704241497898356938e-01
1.704241497898356938e-01
1.719526175009552793e-01
1.719526175009552793e-01
1.604891096675582773e-01
1.604891096675582773e-01
1.604891096675582773e-01
1.654566297286969856e-01
1.654566297286969856e-01
1.681314482231562879e-01
1.681314482231562879e-01
1.681314482231562879e-01
1.688956820787160806e-01
1.688956820787160806e-01
1.727168513565150998e-01
1.727168513565150998e-01
1.727168513565150998e-01
1.799770729843332140e-01
1.799770729843332140e-01
1.730989682842949962e-01
1.730989682842949962e-01
1.730989682842949962e-01
1.727168513565150998e-01
1.727168513565150998e-01
1.834161253343523090e-01
1.834161253343523090e-01
1.834161253343523090e-01
1.933511654566297255e-01
1.933511654566297255e-01
2.006113870844478397e-01
2.006113870844478397e-01
2.006113870844478397e-01
1.880015284677111209e-01
1.880015284677111209e-01
2.063431410011463407e-01
2.063431410011463407e-01
2.063431410011463407e-01
2.025219717233473493e-01
2.025219717233473493e-01
2.105464272067252562e-01
2.105464272067252562e-01
2.105464272067252562e-01
2.139854795567443513e-01
2.139854795567443513e-01
2.208635842567825691e-01
2.208635842567825691e-01
2.208635842567825691e-01
2.166602980512036813e-01
2.166602980512036813e-01
2.231562858234619751e-01
2.231562858234619751e-01
2.231562858234619751e-01
2.319449751623997025e-01
2.319449751623997025e-01
2.372946121513183071e-01
2.372946121513183071e-01
2.372946121513183071e-01
2.426442491402369117e-01
2.426442491402369117e-01
2.472296522735957236e-01
2.472296522735957236e-01
2.472296522735957236e-01
2.502865876958349500e-01
2.502865876958349500e-01
2.464654184180359309e-01
2.464654184180359309e-01
2.464654184180359309e-01
2.521971723347344319e-01
2.521971723347344319e-01
2.609858616736721593e-01
2.609858616736721593e-01
2.609858616736721593e-01
2.586931601069927256e-01
2.586931601069927256e-01
2.663354986625907639e-01
2.663354986625907639e-01
2.663354986625907639e-01
2.781811234237676622e-01
2.781811234237676622e-01
2.785632403515475586e-01
2.785632403515475586e-01
2.785632403515475586e-01
2.820022927015666814e-01
2.820022927015666814e-01
2.785632403515475586e-01
2.785632403515475586e-01
2.785632403515475586e-01
2.881161635460450787e-01
2.881161635460450787e-01
2.961406190294230134e-01
2.961406190294230134e-01
2.869698127627053896e-01
2.869698127627053896e-01
2.869698127627053896e-01
2.923194497516239942e-01
2.923194497516239942e-01
2.934658005349636833e-01
2.934658005349636833e-01
2.934658005349636833e-01
3.064577760794803263e-01
3.064577760794803263e-01
3.003439052350019289e-01
3.003439052350019289e-01
3.003439052350019289e-01
3.106610622850592418e-01
3.106610622850592418e-01
3.133358807795185164e-01
3.133358807795185164e-01
3.133358807795185164e-01
3.053114252961406372e-01
3.053114252961406372e-01
3.144822315628582610e-01
3.144822315628582610e-01
3.144822315628582610e-01
3.121895299961788273e-01
3.121895299961788273e-01
3.160106992739778464e-01
3.160106992739778464e-01
3.160106992739778464e-01
3.144822315628582610e-01
3.144822315628582610e-01
3.186855177684371210e-01
3.186855177684371210e-01
3.186855177684371210e-01
3.156285823461979501e-01
3.156285823461979501e-01
3.244172716851356775e-01
3.244172716851356775e-01
3.244172716851356775e-01
3.335880779518532457e-01
3.335880779518532457e-01
3.213603362628964510e-01
3.213603362628964510e-01
3.213603362628964510e-01
3.274742071073748484e-01
3.274742071073748484e-01
3.255636224684753666e-01
3.255636224684753666e-01
3.255636224684753666e-01
3.267099732518150557e-01
3.267099732518150557e-01
3.339701948796331421e-01
3.339701948796331421e-01
3.339701948796331421e-01
3.431410011463507659e-01
3.431410011463507659e-01
3.385555980129919540e-01
3.385555980129919540e-01
3.385555980129919540e-01
3.328238440962934530e-01
3.328238440962934530e-01
3.381734810852120576e-01
3.381734810852120576e-01
3.381734810852120576e-01
3.477264042797095778e-01
3.477264042797095778e-01
3.439052350019105586e-01
3.439052350019105586e-01
3.439052350019105586e-01
3.351165456629728867e-01
3.351165456629728867e-01
3.389377149407718504e-01
3.389377149407718504e-01
3.389377149407718504e-01
3.515475735575085969e-01
3.515475735575085969e-01
3.412304165074512841e-01
3.412304165074512841e-01
3.412304165074512841e-01
3.332059610240733494e-01
3.332059610240733494e-01
3.400840657241115950e-01
3.400840657241115950e-01
3.400840657241115950e-01
3.423767672907909732e-01
3.423767672907909732e-01
3.461979365685899923e-01
3.461979365685899923e-01
3.461979365685899923e-01
3.500191058463890115e-01
3.500191058463890115e-01
3.461979365685899923e-01
3.461979365685899923e-01
3.461979365685899923e-01
3.473442873519296814e-01
3.473442873519296814e-01
3.492548719908292187e-01
3.492548719908292187e-01
3.492548719908292187e-01
3.385555980129919540e-01
3.385555980129919540e-01
3.591899121131066352e-01
3.591899121131066352e-01
3.591899121131066352e-01
3.416125334352311804e-01
3.416125334352311804e-01
3.458158196408100959e-01
3.458158196408100959e-01
3.458158196408100959e-01
3.538402751241879751e-01
3.538402751241879751e-01
3.439052350019105586e-01
3.439052350019105586e-01
3.439052350019105586e-01
3.423767672907909732e-01
3.423767672907909732e-01
3.588077951853266834e-01
3.588077951853266834e-01
3.588077951853266834e-01
3.469621704241497850e-01
3.469621704241497850e-01
3.561329766908674088e-01
3.561329766908674088e-01
3.561329766908674088e-01
3.561329766908674088e-01
3.561329766908674088e-01
3.446694688574704069e-01
3.446694688574704069e-01
3.446694688574704069e-01
3.576614444019869943e-01
3.576614444019869943e-01
3.572793274742070979e-01
3.572793274742070979e-01
3.572793274742070979e-01
3.488727550630492669e-01
3.488727550630492669e-01
3.477264042797095778e-01
3.477264042797095778e-01
3.477264042797095778e-01
3.461979365685899923e-01
3.461979365685899923e-01
3.507833397019488042e-01
3.507833397019488042e-01
3.507833397019488042e-01
3.435231180741306622e-01
3.435231180741306622e-01
3.431410011463507659e-01
3.431410011463507659e-01
3.431410011463507659e-01
3.454337027130301996e-01
3.454337027130301996e-01
3.465800534963698887e-01
3.465800534963698887e-01
3.465800534963698887e-01
3.442873519296905105e-01
3.442873519296905105e-01
3.469621704241497850e-01
3.469621704241497850e-01
3.469621704241497850e-01
3.446694688574704069e-01
3.446694688574704069e-01
3.458158196408100959e-01
3.458158196408100959e-01
3.458158196408100959e-01
3.534581581964080788e-01
3.534581581964080788e-01
3.492548719908292187e-01
3.492548719908292187e-01
3.492548719908292187e-01
3.465800534963698887e-01
3.465800534963698887e-01
3.335880779518532457e-01
3.335880779518532457e-01
3.335880779518532457e-01
3.404661826518914913e-01
3.404661826518914913e-01
3.343523118074130940e-01
3.343523118074130940e-01
3.343523118074130940e-01
3.362628964463125758e-01
3.362628964463125758e-01
3.423767672907909732e-01
3.423767672907909732e-01
3.423767672907909732e-01
3.370271303018723685e-01
3.370271303018723685e-01
3.374092472296522649e-01
3.374092472296522649e-01
3.374092472296522649e-01
3.270920901795949520e-01
3.270920901795949520e-01
3.290026748184944339e-01
3.290026748184944339e-01
3.290026748184944339e-01
3.316774933129537639e-01
3.316774933129537639e-01
3.228888039740160365e-01
3.228888039740160365e-01
3.228888039740160365e-01
3.232709209017959329e-01
3.232709209017959329e-01
3.320596102407336603e-01
3.320596102407336603e-01
3.228888039740160365e-01
3.228888039740160365e-01
3.228888039740160365e-01
3.144822315628582610e-01
3.144822315628582610e-01
3.259457393962552629e-01
3.259457393962552629e-01
3.259457393962552629e-01
3.133358807795185164e-01
3.133358807795185164e-01
3.179212839128773282e-01
3.179212839128773282e-01
3.179212839128773282e-01
3.037829575850209962e-01
3.037829575850209962e-01
3.152464654184180537e-01
3.152464654184180537e-01
3.152464654184180537e-01
3.076041268628200154e-01
3.076041268628200154e-01
3.079862437905999117e-01
3.079862437905999117e-01
3.079862437905999117e-01
2.961406190294230134e-01
2.961406190294230134e-01
3.003439052350019289e-01
3.003439052350019289e-01
3.003439052350019289e-01
2.896446312571647197e-01
2.896446312571647197e-01
2.911730989682843052e-01
2.911730989682843052e-01
2.911730989682843052e-01
2.877340466182651824e-01
2.877340466182651824e-01
2.991975544516621843e-01
2.991975544516621843e-01
2.991975544516621843e-01
2.892625143293847678e-01
2.892625143293847678e-01
2.976690867405425989e-01
2.976690867405425989e-01
2.976690867405425989e-01
2.804738249904470959e-01
2.804738249904470959e-01
2.812380588460068886e-01
2.812380588460068886e-01
2.812380588460068886e-01
2.800917080626671996e-01
2.800917080626671996e-01
2.911730989682843052e-01
2.911730989682843052e-01
2.911730989682843052e-01
2.858234619793657005e-01
2.858234619793657005e-01
2.789453572793274549e-01
2.789453572793274549e-01
2.789453572793274549e-01
2.808559419182269923e-01
2.808559419182269923e-01
2.812380588460068886e-01
2.812380588460068886e-01
2.812380588460068886e-01
2.701566679403897830e-01
2.701566679403897830e-01
2.720672525792892649e-01
2.720672525792892649e-01
2.720672525792892649e-01
2.716851356515093685e-01
2.716851356515093685e-01
2.732136033626289540e-01
2.732136033626289540e-01
2.732136033626289540e-01
2.716851356515093685e-01
2.716851356515093685e-01
2.648070309514711229e-01
2.648070309514711229e-01
2.648070309514711229e-01
2.621322124570118484e-01
2.621322124570118484e-01
2.697745510126098312e-01
2.697745510126098312e-01
2.697745510126098312e-01
2.724493695070691612e-01
2.724493695070691612e-01
2.709209017959495758e-01
2.709209017959495758e-01
2.709209017959495758e-01
2.606037447458922629e-01
2.606037447458922629e-01
2.640427970959113302e-01
2.640427970959113302e-01
2.640427970959113302e-01
2.579289262514329328e-01
2.579289262514329328e-01
2.686282002292701421e-01
2.686282002292701421e-01
2.686282002292701421e-01
2.606037447458922629e-01
2.606037447458922629e-01
2.537256400458540173e-01
2.537256400458540173e-01
2.537256400458540173e-01
2.510508215513947428e-01
2.510508215513947428e-01
2.487581199847153091e-01
2.487581199847153091e-01
2.487581199847153091e-01
2.479938861291555163e-01
2.479938861291555163e-01
2.510508215513947428e-01
2.510508215513947428e-01
2.510508215513947428e-01
2.460833014902560067e-01
2.460833014902560067e-01
2.407336645013374021e-01
2.407336645013374021e-01
2.407336645013374021e-01
2.464654184180359309e-01
2.464654184180359309e-01
2.499044707680550259e-01
2.499044707680550259e-01
2.499044707680550259e-01
2.422621322124570153e-01
2.422621322124570153e-01
2.414978983568972226e-01
2.414978983568972226e-01
2.414978983568972226e-01
2.529614061902942246e-01
2.529614061902942246e-01
2.457011845624761104e-01
2.457011845624761104e-01
2.457011845624761104e-01
2.418800152846771190e-01
2.418800152846771190e-01
2.388230798624378926e-01
2.388230798624378926e-01
2.388230798624378926e-01
2.353840275124187975e-01
2.353840275124187975e-01
2.407336645013374021e-01
2.407336645013374021e-01
2.407336645013374021e-01
2.479938861291555163e-01
2.479938861291555163e-01
2.327092090179594952e-01
2.327092090179594952e-01
2.327092090179594952e-01
2.464654184180359309e-01
2.464654184180359309e-01
2.357661444401986939e-01
2.357661444401986939e-01
2.357661444401986939e-01
2.304165074512800893e-01
2.304165074512800893e-01
2.403515475735575058e-01
2.403515475735575058e-01
2.403515475735575058e-01
2.441727168513565249e-01
2.441727168513565249e-01
2.414978983568972226e-01
2.414978983568972226e-01
2.414978983568972226e-01
2.300343905235001929e-01
2.300343905235001929e-01
2.223920519679021823e-01
2.223920519679021823e-01
2.223920519679021823e-01
2.292701566679404002e-01
2.292701566679404002e-01
2.338555598012991843e-01
2.338555598012991843e-01
2.338555598012991843e-01
2.372946121513183071e-01
2.372946121513183071e-01
2.304165074512800893e-01
2.304165074512800893e-01
2.304165074512800893e-01
2.300343905235001929e-01
2.300343905235001929e-01
2.269774551012609942e-01
2.269774551012609942e-01
2.269774551012609942e-01
2.323270920901795988e-01
2.323270920901795988e-01
2.170424149789835777e-01
2.170424149789835777e-01
2.170424149789835777e-01
2.223920519679021823e-01
2.223920519679021823e-01
2.262132212457011737e-01
2.262132212457011737e-01
2.262132212457011737e-01
2.265953381734810979e-01
2.265953381734810979e-01
2.185708826901031632e-01
2.185708826901031632e-01
2.185708826901031632e-01
2.193351165456629837e-01
2.193351165456629837e-01
2.181887657623232668e-01
2.181887657623232668e-01
2.109285441345051526e-01
2.109285441345051526e-01
2.109285441345051526e-01
2.193351165456629837e-01
2.193351165456629837e-01
2.086358425678257467e-01
2.086358425678257467e-01
2.086358425678257467e-01
2.086358425678257467e-01
2.086358425678257467e-01
2.181887657623232668e-01
2.181887657623232668e-01
2.181887657623232668e-01
2.071073748567061612e-01
2.071073748567061612e-01
2.101643102789453599e-01
2.101643102789453599e-01
2.101643102789453599e-01
2.013756209400076325e-01
2.013756209400076325e-01
2.116927779900649731e-01
2.116927779900649731e-01
2.116927779900649731e-01
2.136033626289644549e-01
2.136033626289644549e-01
2.116927779900649731e-01
2.116927779900649731e-01
2.116927779900649731e-01
1.990829193733282265e-01
1.990829193733282265e-01
2.067252579289262648e-01
2.067252579289262648e-01
2.067252579289262648e-01
1.983186855177684338e-01
1.983186855177684338e-01
2.136033626289644549e-01
2.136033626289644549e-01
2.136033626289644549e-01
1.990829193733282265e-01
1.990829193733282265e-01
2.090179594956056430e-01
2.090179594956056430e-01
2.090179594956056430e-01
2.051967902178066516e-01
2.051967902178066516e-01
2.051967902178066516e-01
2.051967902178066516e-01
2.051967902178066516e-01
1.987008024455483302e-01
1.987008024455483302e-01
2.036683225066870384e-01
2.036683225066870384e-01
2.036683225066870384e-01
2.082537256400458503e-01
2.082537256400458503e-01
1.998471532288880470e-01
1.998471532288880470e-01
1.998471532288880470e-01
1.902942300343905269e-01
1.902942300343905269e-01
1.914405808177302160e-01
1.914405808177302160e-01
1.914405808177302160e-01
2.002292701566679434e-01
2.002292701566679434e-01
2.097821933511654635e-01
2.097821933511654635e-01
2.097821933511654635e-01
1.979365685899885374e-01
1.979365685899885374e-01
1.948796331677493388e-01
1.948796331677493388e-01
1.948796331677493388e-01
2.044325563622468589e-01
2.044325563622468589e-01
1.868551776843714041e-01
1.868551776843714041e-01
1.868551776843714041e-01
1.933511654566297255e-01
1.933511654566297255e-01
1.925869316010699328e-01
1.925869316010699328e-01
1.925869316010699328e-01
1.899121131066106305e-01
1.899121131066106305e-01
1.857088269010317150e-01
1.857088269010317150e-01
1.857088269010317150e-01
1.987008024455483302e-01
1.987008024455483302e-01
1.883836453954910173e-01
1.883836453954910173e-01
1.883836453954910173e-01
1.895299961788307341e-01
1.895299961788307341e-01
1.941153993121895183e-01
1.941153993121895183e-01
1.941153993121895183e-01
1.941153993121895183e-01
1.941153993121895183e-01
1.967902178066488483e-01
1.967902178066488483e-01
1.967902178066488483e-01
1.822697745510126199e-01
1.822697745510126199e-01
1.925869316010699328e-01
1.925869316010699328e-01
1.925869316010699328e-01
1.880015284677111209e-01
1.880015284677111209e-01
1.918226977455101123e-01
1.918226977455101123e-01
1.918226977455101123e-01
1.929690485288498292e-01
1.929690485288498292e-01
1.914405808177302160e-01
1.914405808177302160e-01
1.914405808177302160e-01
1.822697745510126199e-01
1.822697745510126199e-01
1.761559037065341948e-01
1.761559037065341948e-01
1.761559037065341948e-01
1.815055406954527994e-01
1.815055406954527994e-01
1.834161253343523090e-01
1.834161253343523090e-01
1.834161253343523090e-01
1.887657623232709136e-01
1.887657623232709136e-01
1.841803591899121018e-01
1.841803591899121018e-01
1.841803591899121018e-01
1.849445930454719222e-01
1.849445930454719222e-01
1.841803591899121018e-01
1.841803591899121018e-01
1.841803591899121018e-01
1.902942300343905269e-01
1.902942300343905269e-01
1.826518914787925163e-01
1.826518914787925163e-01
1.826518914787925163e-01
1.830340084065724127e-01
1.830340084065724127e-01
1.891478792510508100e-01
1.891478792510508100e-01
1.891478792510508100e-01
1.830340084065724127e-01
1.830340084065724127e-01
1.761559037065341948e-01
1.761559037065341948e-01
1.761559037065341948e-01
1.853267099732518186e-01
1.853267099732518186e-01
1.830340084065724127e-01
1.830340084065724127e-01
1.830340084065724127e-01
1.761559037065341948e-01
1.761559037065341948e-01
1.799770729843332140e-01
1.799770729843332140e-01
1.799770729843332140e-01
1.773022544898739117e-01
1.773022544898739117e-01
1.719526175009552793e-01
1.719526175009552793e-01
1.719526175009552793e-01
1.719526175009552793e-01
1.719526175009552793e-01
1.769201375620939876e-01
1.769201375620939876e-01
1.769201375620939876e-01
1.761559037065341948e-01
1.761559037065341948e-01
1.730989682842949962e-01
1.730989682842949962e-01
1.730989682842949962e-01
1.792128391287733935e-01
1.792128391287733935e-01
1.753916698509744021e-01
1.753916698509744021e-01
1.753916698509744021e-01
1.784486052732136008e-01
1.784486052732136008e-01
1.662208635842567783e-01
1.662208635842567783e-01
1.662208635842567783e-01
1.738632021398547889e-01
1.738632021398547889e-01
1.826518914787925163e-01
1.826518914787925163e-01
1.826518914787925163e-01
1.822697745510126199e-01
1.822697745510126199e-01
1.734810852120748925e-01
1.734810852120748925e-01
1.734810852120748925e-01
1.715705005731753829e-01
1.715705005731753829e-01
1.765380206343140912e-01
1.765380206343140912e-01
1.765380206343140912e-01
1.730989682842949962e-01
1.730989682842949962e-01
1.612533435231180701e-01
1.612533435231180701e-01
1.730989682842949962e-01
1.730989682842949962e-01
1.730989682842949962e-01
1.811234237676729031e-01
1.811234237676729031e-01
1.738632021398547889e-01
1.738632021398547889e-01
1.738632021398547889e-01
1.723347344287352034e-01
1.723347344287352034e-01
1.646923958731371929e-01
1.646923958731371929e-01
1.646923958731371929e-01
1.780664883454337044e-01
1.780664883454337044e-01
1.692777990064959770e-01
1.692777990064959770e-01
1.692777990064959770e-01
1.708062667176155902e-01
1.708062667176155902e-01
1.765380206343140912e-01
1.765380206343140912e-01
1.765380206343140912e-01
1.662208635842567783e-01
1.662208635842567783e-01
1.734810852120748925e-01
1.734810852120748925e-01
1.734810852120748925e-01
1.780664883454337044e-01
1.780664883454337044e-01
1.761559037065341948e-01
1.761559037065341948e-01
1.761559037065341948e-01
1.765380206343140912e-01
1.765380206343140912e-01
1.696599159342759011e-01
1.696599159342759011e-01
1.696599159342759011e-01
1.681314482231562879e-01
1.681314482231562879e-01
1.620175773786778628e-01
1.620175773786778628e-01
1.620175773786778628e-01
1.727168513565150998e-01
1.727168513565150998e-01
1.761559037065341948e-01
1.761559037065341948e-01
1.761559037065341948e-01
1.700420328620557975e-01
1.700420328620557975e-01
1.551394726786396727e-01
1.551394726786396727e-01
1.551394726786396727e-01
1.604891096675582773e-01
1.604891096675582773e-01
1.650745128009170892e-01
1.650745128009170892e-01
1.650745128009170892e-01
1.608712265953381737e-01
1.608712265953381737e-01
1.570500573175391545e-01
1.570500573175391545e-01
1.570500573175391545e-01
1.669850974398165711e-01
1.669850974398165711e-01
1.738632021398547889e-01
1.738632021398547889e-01
1.738632021398547889e-01
1.761559037065341948e-01
1.761559037065341948e-01
1.719526175009552793e-01
1.719526175009552793e-01
1.719526175009552793e-01
1.727168513565150998e-01
1.727168513565150998e-01
1.608712265953381737e-01
1.608712265953381737e-01
1.608712265953381737e-01
1.593427588842185605e-01
1.593427588842185605e-01
1.704241497898356938e-01
1.704241497898356938e-01
1.704241497898356938e-01
1.616354604508979664e-01
1.616354604508979664e-01
1.730989682842949962e-01
1.730989682842949962e-01
1.730989682842949962e-01
1.711883836453954866e-01
1.711883836453954866e-01
1.681314482231562879e-01
1.681314482231562879e-01
1.681314482231562879e-01
1.616354604508979664e-01
1.616354604508979664e-01
1.723347344287352034e-01
1.723347344287352034e-01
1.723347344287352034e-01
1.639281620175773724e-01
1.639281620175773724e-01
1.612533435231180701e-01
1.612533435231180701e-01
1.612533435231180701e-01
1.711883836453954866e-01
1.711883836453954866e-01
1.681314482231562879e-01
1.681314482231562879e-01
1.681314482231562879e-01
1.692777990064959770e-01
1.692777990064959770e-01
1.696599159342759011e-01
1.696599159342759011e-01
1.696599159342759011e-01
1.601069927397783810e-01
1.601069927397783810e-01
1.677493312953763915e-01
1.677493312953763915e-01
1.677493312953763915e-01
1.589606419564386641e-01
1.589606419564386641e-01
1.654566297286969856e-01
1.654566297286969856e-01
1.654566297286969856e-01
1.578142911730989750e-01
1.578142911730989750e-01
1.612533435231180701e-01
1.612533435231180701e-01
1.612533435231180701e-01
1.627818112342376833e-01
1.627818112342376833e-01
1.673672143675964952e-01
1.673672143675964952e-01
1.673672143675964952e-01
1.696599159342759011e-01
1.696599159342759011e-01
1.666029805120366747e-01
1.666029805120366747e-01
1.666029805120366747e-01
1.677493312953763915e-01
1.677493312953763915e-01
1.612533435231180701e-01
1.612533435231180701e-01
1.612533435231180701e-01
1.669850974398165711e-01
1.669850974398165711e-01
1.593427588842185605e-01
1.593427588842185605e-01
1.593427588842185605e-01
1.669850974398165711e-01
1.669850974398165711e-01
1.623996943064577869e-01
1.623996943064577869e-01
1.623996943064577869e-01
1.589606419564386641e-01
1.589606419564386641e-01
1.646923958731371929e-01
1.646923958731371929e-01
1.646923958731371929e-01
1.623996943064577869e-01
1.623996943064577869e-01
1.581964081008788714e-01
1.581964081008788714e-01
1.581964081008788714e-01
1.532288880397401631e-01
1.532288880397401631e-01
1.593427588842185605e-01
1.593427588842185605e-01
1.593427588842185605e-01
1.620175773786778628e-01
1.620175773786778628e-01
1.753916698509744021e-01
1.753916698509744021e-01
1.753916698509744021e-01
1.643102789453572687e-01
1.643102789453572687e-01
1.597248758119984846e-01
1.597248758119984846e-01
1.597248758119984846e-01
1.570500573175391545e-01
1.570500573175391545e-01
1.742453190676346853e-01
1.742453190676346853e-01
1.742453190676346853e-01
1.623996943064577869e-01
1.623996943064577869e-01
1.612533435231180701e-01
1.612533435231180701e-01
1.612533435231180701e-01
1.597248758119984846e-01
1.597248758119984846e-01
1.700420328620557975e-01
1.700420328620557975e-01
1.700420328620557975e-01
1.654566297286969856e-01
1.654566297286969856e-01
1.539931218952999559e-01
1.539931218952999559e-01
1.539931218952999559e-01
1.635460450897974760e-01
1.635460450897974760e-01
1.562858234619793618e-01
1.562858234619793618e-01
1.608712265953381737e-01
1.608712265953381737e-01
1.608712265953381737e-01
1.581964081008788714e-01
1.581964081008788714e-01
1.742453190676346853e-01
1.742453190676346853e-01
1.742453190676346853e-01
1.719526175009552793e-01
1.719526175009552793e-01
1.784486052732136008e-01
1.784486052732136008e-01
1.784486052732136008e-01
1.818876576232326958e-01
1.818876576232326958e-01
1.811234237676729031e-01
1.811234237676729031e-01
1.811234237676729031e-01
1.780664883454337044e-01
1.780664883454337044e-01
1.880015284677111209e-01
1.880015284677111209e-01
1.880015284677111209e-01
1.719526175009552793e-01
1.719526175009552793e-01
1.792128391287733935e-01
1.792128391287733935e-01
1.792128391287733935e-01
1.841803591899121018e-01
1.841803591899121018e-01
1.864730607565915077e-01
1.864730607565915077e-01
1.864730607565915077e-01
1.933511654566297255e-01
1.933511654566297255e-01
1.994650363011081506e-01
1.994650363011081506e-01
1.994650363011081506e-01
2.051967902178066516e-01
2.051967902178066516e-01
2.059610240733664444e-01
2.059610240733664444e-01
2.059610240733664444e-01
2.063431410011463407e-01
2.063431410011463407e-01
2.143675964845242754e-01
2.143675964845242754e-01
2.143675964845242754e-01
2.269774551012609942e-01
2.269774551012609942e-01
2.262132212457011737e-01
2.262132212457011737e-01
2.262132212457011737e-01
2.243026366068016919e-01
2.243026366068016919e-01
2.315628582346198061e-01
2.315628582346198061e-01
2.315628582346198061e-01
2.499044707680550259e-01
2.499044707680550259e-01
2.529614061902942246e-01
2.529614061902942246e-01
2.529614061902942246e-01
2.613679786014520556e-01
2.613679786014520556e-01
2.472296522735957236e-01
2.472296522735957236e-01
2.472296522735957236e-01
2.651891478792510748e-01
2.651891478792510748e-01
2.613679786014520556e-01
2.613679786014520556e-01
2.613679786014520556e-01
2.682460833014902457e-01
2.682460833014902457e-01
2.774168895682078695e-01
2.774168895682078695e-01
2.774168895682078695e-01
2.770347726404279731e-01
2.770347726404279731e-01
2.797095911348873032e-01
2.797095911348873032e-01
2.797095911348873032e-01
2.747420710737485394e-01
2.747420710737485394e-01
2.865876958349254933e-01
2.865876958349254933e-01
2.865876958349254933e-01
2.953763851738632207e-01
2.953763851738632207e-01
2.927015666794038906e-01
2.927015666794038906e-01
2.927015666794038906e-01
3.056935422239205336e-01
3.056935422239205336e-01
3.072220099350401190e-01
3.072220099350401190e-01
3.072220099350401190e-01
3.118074130683989309e-01
3.118074130683989309e-01
3.110431792128391382e-01
3.110431792128391382e-01
3.110431792128391382e-01
3.179212839128773282e-01
3.179212839128773282e-01
3.221245701184562438e-01
3.221245701184562438e-01
3.221245701184562438e-01
3.095147115017195527e-01
3.095147115017195527e-01
3.183034008406572246e-01
3.183034008406572246e-01
3.183034008406572246e-01
3.148643484906381573e-01
3.148643484906381573e-01
3.255636224684753666e-01
3.255636224684753666e-01
3.255636224684753666e-01
3.198318685517768656e-01
3.198318685517768656e-01
3.255636224684753666e-01
3.255636224684753666e-01
3.255636224684753666e-01
3.202139854795567619e-01
3.202139854795567619e-01
3.274742071073748484e-01
3.274742071073748484e-01
3.274742071073748484e-01
3.293847917462743857e-01
3.293847917462743857e-01
3.286205578907145375e-01
3.286205578907145375e-01
3.286205578907145375e-01
3.290026748184944339e-01
3.290026748184944339e-01
3.324417271685135566e-01
3.324417271685135566e-01
3.324417271685135566e-01
3.439052350019105586e-01
3.439052350019105586e-01
3.412304165074512841e-01
3.412304165074512841e-01
3.412304165074512841e-01
3.377913641574321613e-01
3.377913641574321613e-01
3.488727550630492669e-01
3.488727550630492669e-01
3.488727550630492669e-01
3.358807795185326794e-01
3.358807795185326794e-01
3.515475735575085969e-01
3.515475735575085969e-01
3.515475735575085969e-01
3.419946503630110768e-01
3.419946503630110768e-01
3.542223920519679270e-01
3.542223920519679270e-01
3.542223920519679270e-01
3.511654566297287006e-01
3.511654566297287006e-01
3.404661826518914913e-01
3.404661826518914913e-01
3.404661826518914913e-01
3.439052350019105586e-01
3.439052350019105586e-01
3.484906381352693705e-01
3.484906381352693705e-01
3.484906381352693705e-01
3.473442873519296814e-01
3.473442873519296814e-01
3.488727550630492669e-01
3.488727550630492669e-01
3.488727550630492669e-01
3.481085212074894741e-01
3.481085212074894741e-01
3.591899121131066352e-01
3.591899121131066352e-01
3.591899121131066352e-01
3.458158196408100959e-01
3.458158196408100959e-01
3.580435613297668906e-01
3.580435613297668906e-01
3.580435613297668906e-01
3.553687428353076161e-01
3.553687428353076161e-01
3.599541459686664280e-01
3.599541459686664280e-01
3.599541459686664280e-01
3.576614444019869943e-01
3.576614444019869943e-01
3.614826136797860134e-01
3.614826136797860134e-01
3.614826136797860134e-01
3.576614444019869943e-01
3.576614444019869943e-01
3.511654566297287006e-01
3.511654566297287006e-01
3.511654566297287006e-01
3.561329766908674088e-01
3.561329766908674088e-01
3.584256782575467870e-01
3.584256782575467870e-01
3.584256782575467870e-01
3.630110813909055989e-01
3.630110813909055989e-01
3.546045089797478234e-01
3.546045089797478234e-01
3.538402751241879751e-01
3.538402751241879751e-01
3.538402751241879751e-01
3.626289644631257025e-01
3.626289644631257025e-01
3.599541459686664280e-01
3.599541459686664280e-01
3.599541459686664280e-01
3.523118074130683897e-01
3.523118074130683897e-01
3.576614444019869943e-01
3.576614444019869943e-01
3.576614444019869943e-01
3.477264042797095778e-01
3.477264042797095778e-01
3.668322506687046181e-01
3.668322506687046181e-01
3.668322506687046181e-01
3.565150936186473052e-01
3.565150936186473052e-01
3.607183798242262207e-01
3.607183798242262207e-01
3.607183798242262207e-01
3.568972105464272015e-01
3.568972105464272015e-01
3.580435613297668906e-01
3.580435613297668906e-01
3.580435613297668906e-01
3.561329766908674088e-01
3.561329766908674088e-01
3.500191058463890115e-01
3.500191058463890115e-01
3.500191058463890115e-01
3.603362628964463243e-01
3.603362628964463243e-01
3.576614444019869943e-01
3.576614444019869943e-01
3.576614444019869943e-01
3.561329766908674088e-01
3.561329766908674088e-01
3.481085212074894741e-01
3.481085212074894741e-01
3.481085212074894741e-01
3.515475735575085969e-01
3.515475735575085969e-01
3.526939243408482860e-01
3.526939243408482860e-01
3.526939243408482860e-01
3.565150936186473052e-01
3.565150936186473052e-01
3.435231180741306622e-01
3.435231180741306622e-01
3.435231180741306622e-01
3.419946503630110768e-01
3.419946503630110768e-01
3.515475735575085969e-01
3.515475735575085969e-01
3.515475735575085969e-01
3.400840657241115950e-01
3.400840657241115950e-01
3.538402751241879751e-01
3.538402751241879751e-01
3.538402751241879751e-01
3.408482995796713877e-01
3.408482995796713877e-01
3.500191058463890115e-01
3.500191058463890115e-01
3.500191058463890115e-01
3.393198318685518022e-01
3.393198318685518022e-01
3.400840657241115950e-01
3.400840657241115950e-01
3.400840657241115950e-01
3.492548719908292187e-01
3.492548719908292187e-01
3.423767672907909732e-01
3.423767672907909732e-01
3.423767672907909732e-01
3.442873519296905105e-01
3.442873519296905105e-01
3.316774933129537639e-01
3.316774933129537639e-01
3.316774933129537639e-01
3.278563240351547448e-01
3.278563240351547448e-01
3.263278563240351593e-01
3.263278563240351593e-01
3.263278563240351593e-01
3.263278563240351593e-01
3.263278563240351593e-01
3.244172716851356775e-01
3.244172716851356775e-01
3.244172716851356775e-01
3.183034008406572246e-01
3.183034008406572246e-01
3.251815055406954702e-01
3.251815055406954702e-01
3.251815055406954702e-01
3.293847917462743857e-01
3.293847917462743857e-01
3.198318685517768656e-01
3.198318685517768656e-01
3.198318685517768656e-01
3.217424531906763474e-01
3.217424531906763474e-01
3.198318685517768656e-01
3.198318685517768656e-01
3.198318685517768656e-01
3.167749331295376392e-01
3.167749331295376392e-01
3.209782193351165547e-01
3.209782193351165547e-01
3.209782193351165547e-01
3.163928162017577428e-01
3.163928162017577428e-01
3.041650745128008926e-01
3.041650745128008926e-01
3.041650745128008926e-01
3.060756591517004299e-01
3.060756591517004299e-01
3.003439052350019289e-01
3.003439052350019289e-01
3.003439052350019289e-01
2.969048528849828061e-01
2.969048528849828061e-01
3.022544898739014108e-01
3.022544898739014108e-01
3.022544898739014108e-01
2.965227359572029098e-01
2.965227359572029098e-01
2.995796713794421362e-01
2.995796713794421362e-01
2.995796713794421362e-01
2.976690867405425989e-01
2.976690867405425989e-01
2.911730989682843052e-01
2.911730989682843052e-01
2.911730989682843052e-01
2.808559419182269923e-01
2.808559419182269923e-01
2.850592281238059078e-01
2.850592281238059078e-01
2.850592281238059078e-01
2.781811234237676622e-01
2.781811234237676622e-01
2.854413450515858042e-01
2.854413450515858042e-01
2.854413450515858042e-01
2.927015666794038906e-01
2.927015666794038906e-01
2.709209017959495758e-01
2.709209017959495758e-01
2.709209017959495758e-01
2.755063049293083877e-01
2.755063049293083877e-01
2.762705387848681804e-01
2.762705387848681804e-01
2.762705387848681804e-01
2.667176155903706603e-01
2.667176155903706603e-01
2.716851356515093685e-01
2.716851356515093685e-01
2.716851356515093685e-01
2.697745510126098312e-01
2.697745510126098312e-01
2.663354986625907639e-01
2.663354986625907639e-01
2.663354986625907639e-01
2.781811234237676622e-01
2.781811234237676622e-01
2.686282002292701421e-01
2.686282002292701421e-01
2.686282002292701421e-01
2.735957202904088503e-01
2.735957202904088503e-01
2.632785632403515375e-01
2.632785632403515375e-01
2.632785632403515375e-01
2.655712648070309712e-01
2.655712648070309712e-01
2.697745510126098312e-01
2.697745510126098312e-01
2.697745510126098312e-01
2.716851356515093685e-01
2.716851356515093685e-01
2.594573939625525183e-01
2.594573939625525183e-01
2.594573939625525183e-01
2.690103171570500384e-01
2.690103171570500384e-01
2.670997325181505566e-01
2.670997325181505566e-01
2.670997325181505566e-01
2.537256400458540173e-01
2.537256400458540173e-01
2.606037447458922629e-01
2.606037447458922629e-01
2.606037447458922629e-01
2.537256400458540173e-01
2.537256400458540173e-01
2.495223538402751295e-01
2.495223538402751295e-01
2.506687046236148464e-01
2.506687046236148464e-01
2.506687046236148464e-01
2.548719908291937064e-01
2.548719908291937064e-01
2.571646923958731401e-01
2.571646923958731401e-01
2.571646923958731401e-01
2.583110431792128292e-01
2.583110431792128292e-01
2.464654184180359309e-01
2.464654184180359309e-01
2.464654184180359309e-01
2.426442491402369117e-01
2.426442491402369117e-01
2.449369507069163177e-01
2.449369507069163177e-01
2.449369507069163177e-01
2.533435231180741209e-01
2.533435231180741209e-01
2.388230798624378926e-01
2.388230798624378926e-01
2.388230798624378926e-01
2.567825754680932437e-01
2.567825754680932437e-01
2.460833014902560067e-01
2.460833014902560067e-01
2.460833014902560067e-01
2.502865876958349500e-01
2.502865876958349500e-01
2.510508215513947428e-01
2.510508215513947428e-01
2.510508215513947428e-01
2.453190676346962140e-01
2.453190676346962140e-01
2.311807413068398820e-01
2.311807413068398820e-01
2.311807413068398820e-01
2.399694306457776094e-01
2.399694306457776094e-01
2.346197936568590048e-01
2.346197936568590048e-01
2.346197936568590048e-01
2.327092090179594952e-01
2.327092090179594952e-01
2.285059228123805797e-01
2.285059228123805797e-01
2.285059228123805797e-01
2.445548337791364213e-01
2.445548337791364213e-01
2.437905999235766008e-01
2.437905999235766008e-01
2.437905999235766008e-01
2.376767290790982035e-01
2.376767290790982035e-01
2.307986243790599856e-01
2.307986243790599856e-01
2.307986243790599856e-01
2.353840275124187975e-01
2.353840275124187975e-01
2.281238058846006833e-01
2.281238058846006833e-01
2.281238058846006833e-01
2.365303782957585144e-01
2.365303782957585144e-01
2.239205196790217678e-01
2.239205196790217678e-01
2.239205196790217678e-01
2.281238058846006833e-01
2.281238058846006833e-01
2.334734428735192879e-01
2.334734428735192879e-01
2.334734428735192879e-01
2.227741688956820787e-01
2.227741688956820787e-01
2.174245319067634741e-01
2.174245319067634741e-01
2.174245319067634741e-01
2.327092090179594952e-01
2.327092090179594952e-01
2.204814673290026728e-01
2.204814673290026728e-01
2.204814673290026728e-01
2.307986243790599856e-01
2.307986243790599856e-01
2.281238058846006833e-01
2.281238058846006833e-01
2.281238058846006833e-01
2.128391287734046622e-01
2.128391287734046622e-01
2.178066488345433704e-01
2.178066488345433704e-01
2.178066488345433704e-01
2.189529996178830595e-01
2.189529996178830595e-01
2.216278181123423896e-01
2.216278181123423896e-01
2.216278181123423896e-01
2.239205196790217678e-01
2.239205196790217678e-01
2.208635842567825691e-01
2.208635842567825691e-01
2.208635842567825691e-01
2.166602980512036813e-01
2.166602980512036813e-01
2.174245319067634741e-01
2.174245319067634741e-01
2.174245319067634741e-01
2.204814673290026728e-01
2.204814673290026728e-01
2.185708826901031632e-01
2.185708826901031632e-01
2.185708826901031632e-01
2.086358425678257467e-01
2.086358425678257467e-01
2.139854795567443513e-01
2.139854795567443513e-01
2.139854795567443513e-01
2.158960641956438609e-01
2.158960641956438609e-01
2.220099350401222860e-01
2.220099350401222860e-01
2.220099350401222860e-01
2.174245319067634741e-01
2.174245319067634741e-01
2.124570118456247658e-01
2.124570118456247658e-01
2.124570118456247658e-01
2.040504394344669348e-01
2.040504394344669348e-01
1.960259839510890278e-01
1.960259839510890278e-01
1.960259839510890278e-01
2.082537256400458503e-01
2.082537256400458503e-01
2.013756209400076325e-01
2.013756209400076325e-01
2.013756209400076325e-01
2.113106610622850490e-01
2.113106610622850490e-01
2.097821933511654635e-01
2.097821933511654635e-01
2.097821933511654635e-01
2.013756209400076325e-01
2.013756209400076325e-01
1.998471532288880470e-01
1.998471532288880470e-01
1.998471532288880470e-01
1.971723347344287447e-01
1.971723347344287447e-01
2.067252579289262648e-01
2.067252579289262648e-01
2.067252579289262648e-01
1.914405808177302160e-01
1.914405808177302160e-01
1.971723347344287447e-01
1.971723347344287447e-01
1.971723347344287447e-01
1.987008024455483302e-01
1.987008024455483302e-01
1.994650363011081506e-01
1.994650363011081506e-01
1.994650363011081506e-01
2.067252579289262648e-01
2.067252579289262648e-01
1.929690485288498292e-01
1.929690485288498292e-01
1.929690485288498292e-01
2.002292701566679434e-01
2.002292701566679434e-01
1.979365685899885374e-01
1.979365685899885374e-01
1.979365685899885374e-01
1.883836453954910173e-01
1.883836453954910173e-01
1.891478792510508100e-01
1.891478792510508100e-01
1.891478792510508100e-01
1.944975162399694424e-01
1.944975162399694424e-01
1.952617500955292351e-01
1.952617500955292351e-01
1.952617500955292351e-01
1.883836453954910173e-01
1.883836453954910173e-01
2.021398547955674529e-01
2.021398547955674529e-01
2.021398547955674529e-01
1.899121131066106305e-01
1.899121131066106305e-01
1.899121131066106305e-01
1.899121131066106305e-01
1.899121131066106305e-01
1.910584638899503196e-01
1.910584638899503196e-01
1.979365685899885374e-01
1.979365685899885374e-01
1.979365685899885374e-01
1.971723347344287447e-01
1.971723347344287447e-01
1.872372946121513282e-01
1.872372946121513282e-01
1.979365685899885374e-01
1.979365685899885374e-01
1.979365685899885374e-01
1.807413068398930067e-01
1.807413068398930067e-01
1.841803591899121018e-01
1.841803591899121018e-01
1.841803591899121018e-01
1.906763469621704232e-01
1.906763469621704232e-01
1.845624761176920259e-01
1.845624761176920259e-01
1.845624761176920259e-01
1.880015284677111209e-01
1.880015284677111209e-01
1.773022544898739117e-01
1.773022544898739117e-01
1.773022544898739117e-01
1.853267099732518186e-01
1.853267099732518186e-01
1.860909438288116113e-01
1.860909438288116113e-01
1.860909438288116113e-01
1.750095529231945057e-01
1.750095529231945057e-01
1.837982422621322054e-01
1.837982422621322054e-01
1.837982422621322054e-01
1.822697745510126199e-01
1.822697745510126199e-01
1.895299961788307341e-01
1.895299961788307341e-01
1.895299961788307341e-01
1.769201375620939876e-01
1.769201375620939876e-01
1.822697745510126199e-01
1.822697745510126199e-01
1.822697745510126199e-01
1.845624761176920259e-01
1.845624761176920259e-01
1.883836453954910173e-01
1.883836453954910173e-01
1.883836453954910173e-01
1.807413068398930067e-01
1.807413068398930067e-01
1.727168513565150998e-01
1.727168513565150998e-01
1.727168513565150998e-01
1.849445930454719222e-01
1.849445930454719222e-01
1.795949560565533176e-01
1.795949560565533176e-01
1.795949560565533176e-01
1.799770729843332140e-01
1.799770729843332140e-01
1.715705005731753829e-01
1.715705005731753829e-01
1.715705005731753829e-01
1.696599159342759011e-01
1.696599159342759011e-01
1.841803591899121018e-01
1.841803591899121018e-01
1.841803591899121018e-01
1.738632021398547889e-01
1.738632021398547889e-01
1.807413068398930067e-01
1.807413068398930067e-01
1.807413068398930067e-01
1.742453190676346853e-01
1.742453190676346853e-01
1.669850974398165711e-01
1.669850974398165711e-01
1.669850974398165711e-01
1.734810852120748925e-01
1.734810852120748925e-01
1.792128391287733935e-01
1.792128391287733935e-01
1.792128391287733935e-01
1.681314482231562879e-01
1.681314482231562879e-01
1.792128391287733935e-01
1.792128391287733935e-01
1.792128391287733935e-01
1.654566297286969856e-01
1.654566297286969856e-01
1.773022544898739117e-01
1.773022544898739117e-01
1.773022544898739117e-01
1.780664883454337044e-01
1.780664883454337044e-01
1.822697745510126199e-01
1.822697745510126199e-01
1.822697745510126199e-01
1.807413068398930067e-01
1.807413068398930067e-01
1.704241497898356938e-01
1.704241497898356938e-01
1.704241497898356938e-01
1.715705005731753829e-01
1.715705005731753829e-01
1.627818112342376833e-01
1.627818112342376833e-01
1.627818112342376833e-01
1.753916698509744021e-01
1.753916698509744021e-01
1.757737867787542985e-01
1.757737867787542985e-01
1.757737867787542985e-01
1.746274359954146094e-01
1.746274359954146094e-01
1.696599159342759011e-01
1.696599159342759011e-01
1.696599159342759011e-01
1.746274359954146094e-01
1.746274359954146094e-01
1.685135651509361843e-01
1.685135651509361843e-01
1.685135651509361843e-01
1.696599159342759011e-01
1.696599159342759011e-01
1.750095529231945057e-01
1.750095529231945057e-01
1.750095529231945057e-01
1.792128391287733935e-01
1.792128391287733935e-01
1.753916698509744021e-01
1.753916698509744021e-01
1.753916698509744021e-01
1.818876576232326958e-01
1.818876576232326958e-01
1.677493312953763915e-01
1.677493312953763915e-01
1.677493312953763915e-01
1.654566297286969856e-01
1.654566297286969856e-01
1.681314482231562879e-01
1.681314482231562879e-01
1.681314482231562879e-01
1.643102789453572687e-01
1.643102789453572687e-01
1.570500573175391545e-01
1.570500573175391545e-01
1.570500573175391545e-01
1.734810852120748925e-01
1.734810852120748925e-01
1.738632021398547889e-01
1.738632021398547889e-01
1.738632021398547889e-01
1.646923958731371929e-01
1.646923958731371929e-01
1.673672143675964952e-01
1.673672143675964952e-01
1.673672143675964952e-01
1.715705005731753829e-01
1.715705005731753829e-01
1.757737867787542985e-01
1.757737867787542985e-01
1.757737867787542985e-01
1.730989682842949962e-01
1.730989682842949962e-01
1.727168513565150998e-01
1.727168513565150998e-01
1.727168513565150998e-01
1.662208635842567783e-01
1.662208635842567783e-01
1.776843714176538080e-01
1.776843714176538080e-01
1.776843714176538080e-01
1.631639281620175796e-01
1.631639281620175796e-01
1.627818112342376833e-01
1.627818112342376833e-01
1.627818112342376833e-01
