1.444401987008024357e-01
1.444401987008024357e-01
1.440580817730225394e-01
1.440580817730225394e-01
1.440580817730225394e-01
1.765380206343140912e-01
1.765380206343140912e-01
1.406190294230034443e-01
1.406190294230034443e-01
1.406190294230034443e-01
1.505540695452808608e-01
1.505540695452808608e-01
1.757737867787542985e-01
1.757737867787542985e-01
1.757737867787542985e-01
1.394726786396637275e-01
1.394726786396637275e-01
1.761559037065341948e-01
1.761559037065341948e-01
1.761559037065341948e-01
1.719526175009552793e-01
1.719526175009552793e-01
1.421474971341230298e-01
1.421474971341230298e-01
1.421474971341230298e-01
1.700420328620557975e-01
1.700420328620557975e-01
1.704241497898356938e-01
1.704241497898356938e-01
1.704241497898356938e-01
1.677493312953763915e-01
1.677493312953763915e-01
1.711883836453954866e-01
1.711883836453954866e-01
1.455865494841421526e-01
1.455865494841421526e-01
1.455865494841421526e-01
1.604891096675582773e-01
1.604891096675582773e-01
1.727168513565150998e-01
1.727168513565150998e-01
1.727168513565150998e-01
1.440580817730225394e-01
1.440580817730225394e-01
1.658387466564768820e-01
1.658387466564768820e-01
1.658387466564768820e-01
1.413832632785632371e-01
1.413832632785632371e-01
1.501719526175009645e-01
1.501719526175009645e-01
1.501719526175009645e-01
1.505540695452808608e-01
1.505540695452808608e-01
1.482613679786014549e-01
1.482613679786014549e-01
1.482613679786014549e-01
1.677493312953763915e-01
1.677493312953763915e-01
1.620175773786778628e-01
1.620175773786778628e-01
1.620175773786778628e-01
1.757737867787542985e-01
1.757737867787542985e-01
1.738632021398547889e-01
1.738632021398547889e-01
1.738632021398547889e-01
1.761559037065341948e-01
1.761559037065341948e-01
1.455865494841421526e-01
1.455865494841421526e-01
1.455865494841421526e-01
1.425296140619029539e-01
1.425296140619029539e-01
1.788307222009934971e-01
1.788307222009934971e-01
1.788307222009934971e-01
1.753916698509744021e-01
1.753916698509744021e-01
1.581964081008788714e-01
1.581964081008788714e-01
1.581964081008788714e-01
1.788307222009934971e-01
1.788307222009934971e-01
1.555215896064195691e-01
1.555215896064195691e-01
1.555215896064195691e-01
1.478792510508215585e-01
1.478792510508215585e-01
1.696599159342759011e-01
1.696599159342759011e-01
1.696599159342759011e-01
1.608712265953381737e-01
1.608712265953381737e-01
1.459686664119220489e-01
1.459686664119220489e-01
1.459686664119220489e-01
1.589606419564386641e-01
1.589606419564386641e-01
1.742453190676346853e-01
1.742453190676346853e-01
1.742453190676346853e-01
1.421474971341230298e-01
1.421474971341230298e-01
1.432938479174627466e-01
1.432938479174627466e-01
1.432938479174627466e-01
1.490256018341612476e-01
1.490256018341612476e-01
1.547573557508597764e-01
1.547573557508597764e-01
1.547573557508597764e-01
1.704241497898356938e-01
1.704241497898356938e-01
1.497898356897210681e-01
1.497898356897210681e-01
1.497898356897210681e-01
1.620175773786778628e-01
1.620175773786778628e-01
1.459686664119220489e-01
1.459686664119220489e-01
1.459686664119220489e-01
1.601069927397783810e-01
1.601069927397783810e-01
1.509361864730607572e-01
1.509361864730607572e-01
1.509361864730607572e-01
1.620175773786778628e-01
1.620175773786778628e-01
1.474971341230416622e-01
1.474971341230416622e-01
1.474971341230416622e-01
1.444401987008024357e-01
1.444401987008024357e-01
1.421474971341230298e-01
1.421474971341230298e-01
1.421474971341230298e-01
1.769201375620939876e-01
1.769201375620939876e-01
1.620175773786778628e-01
1.620175773786778628e-01
1.620175773786778628e-01
1.715705005731753829e-01
1.715705005731753829e-01
1.425296140619029539e-01
1.425296140619029539e-01
1.425296140619029539e-01
1.581964081008788714e-01
1.581964081008788714e-01
1.425296140619029539e-01
1.425296140619029539e-01
1.425296140619029539e-01
1.410011463507833407e-01
1.410011463507833407e-01
1.616354604508979664e-01
1.616354604508979664e-01
1.616354604508979664e-01
1.700420328620557975e-01
1.700420328620557975e-01
1.486434849063813513e-01
1.486434849063813513e-01
1.486434849063813513e-01
1.711883836453954866e-01
1.711883836453954866e-01
1.658387466564768820e-01
1.658387466564768820e-01
1.658387466564768820e-01
1.559037065341994654e-01
1.559037065341994654e-01
1.696599159342759011e-01
1.696599159342759011e-01
1.696599159342759011e-01
1.620175773786778628e-01
1.620175773786778628e-01
1.677493312953763915e-01
1.677493312953763915e-01
1.677493312953763915e-01
1.750095529231945057e-01
1.750095529231945057e-01
1.432938479174627466e-01
1.432938479174627466e-01
1.432938479174627466e-01
1.463507833397019453e-01
1.463507833397019453e-01
1.799770729843332140e-01
1.799770729843332140e-01
1.799770729843332140e-01
1.444401987008024357e-01
1.444401987008024357e-01
1.474971341230416622e-01
1.474971341230416622e-01
1.474971341230416622e-01
1.773022544898739117e-01
1.773022544898739117e-01
1.681314482231562879e-01
1.681314482231562879e-01
1.681314482231562879e-01
1.753916698509744021e-01
1.753916698509744021e-01
1.730989682842949962e-01
1.730989682842949962e-01
1.730989682842949962e-01
1.807413068398930067e-01
1.807413068398930067e-01
1.734810852120748925e-01
1.734810852120748925e-01
1.734810852120748925e-01
1.845624761176920259e-01
1.845624761176920259e-01
1.536110049675200595e-01
1.536110049675200595e-01
1.536110049675200595e-01
1.562858234619793618e-01
1.562858234619793618e-01
1.899121131066106305e-01
1.899121131066106305e-01
1.899121131066106305e-01
1.891478792510508100e-01
1.891478792510508100e-01
1.857088269010317150e-01
1.857088269010317150e-01
1.857088269010317150e-01
1.635460450897974760e-01
1.635460450897974760e-01
1.983186855177684338e-01
1.983186855177684338e-01
1.983186855177684338e-01
1.971723347344287447e-01
1.971723347344287447e-01
1.776843714176538080e-01
1.776843714176538080e-01
1.776843714176538080e-01
2.113106610622850490e-01
2.113106610622850490e-01
1.899121131066106305e-01
1.899121131066106305e-01
2.090179594956056430e-01
2.090179594956056430e-01
2.090179594956056430e-01
2.204814673290026728e-01
2.204814673290026728e-01
2.078716087122659539e-01
2.078716087122659539e-01
2.078716087122659539e-01
2.090179594956056430e-01
2.090179594956056430e-01
2.246847535345815883e-01
2.246847535345815883e-01
2.246847535345815883e-01
2.254489873901413810e-01
2.254489873901413810e-01
2.598395108903324147e-01
2.598395108903324147e-01
2.598395108903324147e-01
2.533435231180741209e-01
2.533435231180741209e-01
2.636606801681314338e-01
2.636606801681314338e-01
2.636606801681314338e-01
2.713030187237294721e-01
2.713030187237294721e-01
2.621322124570118484e-01
2.621322124570118484e-01
2.621322124570118484e-01
2.946121513183034279e-01
2.946121513183034279e-01
3.068398930072602226e-01
3.068398930072602226e-01
3.068398930072602226e-01
3.106610622850592418e-01
3.106610622850592418e-01
3.045471914405808445e-01
3.045471914405808445e-01
3.045471914405808445e-01
3.301490256018341785e-01
3.301490256018341785e-01
3.030187237294612035e-01
3.030187237294612035e-01
3.030187237294612035e-01
3.362628964463125758e-01
3.362628964463125758e-01
3.446694688574704069e-01
3.446694688574704069e-01
3.446694688574704069e-01
3.301490256018341785e-01
3.301490256018341785e-01
3.381734810852120576e-01
3.381734810852120576e-01
3.381734810852120576e-01
3.691249522353840518e-01
3.691249522353840518e-01
3.488727550630492669e-01
3.488727550630492669e-01
3.488727550630492669e-01
3.683607183798242035e-01
3.683607183798242035e-01
3.813526939243408465e-01
3.813526939243408465e-01
3.813526939243408465e-01
3.672143675964845144e-01
3.672143675964845144e-01
3.886129155521589329e-01
3.886129155521589329e-01
3.886129155521589329e-01
3.920519679021780557e-01
3.920519679021780557e-01
3.836453954910202246e-01
3.836453954910202246e-01
3.836453954910202246e-01
3.691249522353840518e-01
3.691249522353840518e-01
4.035154757355751132e-01
4.035154757355751132e-01
4.035154757355751132e-01
4.000764233855559904e-01
4.000764233855559904e-01
3.951089033244172821e-01
3.951089033244172821e-01
3.951089033244172821e-01
4.103935804356133032e-01
4.103935804356133032e-01
3.809705769965609501e-01
3.809705769965609501e-01
3.809705769965609501e-01
3.882307986243790365e-01
3.882307986243790365e-01
4.038975926633550095e-01
4.038975926633550095e-01
4.038975926633550095e-01
3.886129155521589329e-01
3.886129155521589329e-01
3.851738632021398656e-01
3.851738632021398656e-01
3.851738632021398656e-01
3.863202139854795547e-01
3.863202139854795547e-01
3.870844478410393474e-01
3.870844478410393474e-01
3.870844478410393474e-01
4.012227741688956795e-01
4.012227741688956795e-01
3.935804356132976967e-01
3.935804356132976967e-01
3.935804356132976967e-01
3.905235001910584702e-01
3.905235001910584702e-01
4.249140236912495316e-01
4.249140236912495316e-01
4.249140236912495316e-01
4.115399312189529923e-01
4.115399312189529923e-01
4.077187619411539732e-01
4.077187619411539732e-01
4.077187619411539732e-01
3.931983186855177448e-01
3.931983186855177448e-01
4.073366450133740768e-01
4.073366450133740768e-01
4.073366450133740768e-01
4.161253343523118042e-01
4.161253343523118042e-01
4.031333588077951613e-01
4.031333588077951613e-01
4.031333588077951613e-01
4.283530760412686544e-01
4.283530760412686544e-01
4.069545280855941805e-01
4.069545280855941805e-01
4.069545280855941805e-01
3.970194879633167639e-01
3.970194879633167639e-01
4.069545280855941805e-01
4.069545280855941805e-01
4.069545280855941805e-01
4.268246083301490135e-01
4.268246083301490135e-01
3.977837218188765567e-01
3.977837218188765567e-01
3.977837218188765567e-01
4.268246083301490135e-01
4.268246083301490135e-01
4.176538020634313897e-01
4.176538020634313897e-01
4.176538020634313897e-01
4.019870080244554722e-01
4.019870080244554722e-01
4.103935804356133032e-01
4.103935804356133032e-01
4.103935804356133032e-01
3.920519679021780557e-01
3.920519679021780557e-01
4.210928544134505125e-01
4.210928544134505125e-01
4.210928544134505125e-01
4.161253343523118042e-01
4.161253343523118042e-01
3.931983186855177448e-01
3.931983186855177448e-01
3.931983186855177448e-01
4.115399312189529923e-01
4.115399312189529923e-01
3.886129155521589329e-01
3.886129155521589329e-01
3.886129155521589329e-01
3.970194879633167639e-01
3.970194879633167639e-01
3.855559801299197620e-01
3.855559801299197620e-01
3.855559801299197620e-01
4.126862820022926814e-01
4.126862820022926814e-01
3.782957585021016200e-01
3.782957585021016200e-01
3.782957585021016200e-01
3.832632785632403283e-01
3.832632785632403283e-01
3.817348108521207428e-01
3.817348108521207428e-01
3.817348108521207428e-01
4.084829957967138214e-01
4.084829957967138214e-01
4.050439434466946986e-01
4.050439434466946986e-01
4.050439434466946986e-01
3.970194879633167639e-01
3.970194879633167639e-01
3.752388230798624491e-01
3.752388230798624491e-01
3.752388230798624491e-01
4.012227741688956795e-01
4.012227741688956795e-01
4.046618265189148023e-01
4.046618265189148023e-01
4.046618265189148023e-01
3.748567061520825527e-01
3.748567061520825527e-01
3.947267863966373858e-01
3.947267863966373858e-01
3.970194879633167639e-01
3.970194879633167639e-01
3.970194879633167639e-01
3.748567061520825527e-01
3.748567061520825527e-01
3.702713030187237409e-01
3.702713030187237409e-01
3.702713030187237409e-01
3.725640045854031190e-01
3.725640045854031190e-01
3.939625525410775930e-01
3.939625525410775930e-01
3.939625525410775930e-01
3.622468475353458062e-01
3.622468475353458062e-01
3.683607183798242035e-01
3.683607183798242035e-01
3.683607183798242035e-01
3.702713030187237409e-01
3.702713030187237409e-01
3.614826136797860134e-01
3.614826136797860134e-01
3.614826136797860134e-01
3.771494077187619309e-01
3.771494077187619309e-01
3.622468475353458062e-01
3.622468475353458062e-01
3.622468475353458062e-01
3.740924722965227600e-01
3.740924722965227600e-01
3.794421092854413646e-01
3.794421092854413646e-01
3.794421092854413646e-01
3.886129155521589329e-01
3.886129155521589329e-01
3.507833397019488042e-01
3.507833397019488042e-01
3.507833397019488042e-01
3.515475735575085969e-01
3.515475735575085969e-01
3.580435613297668906e-01
3.580435613297668906e-01
3.580435613297668906e-01
3.687428353076040999e-01
3.687428353076040999e-01
3.687428353076040999e-01
3.687428353076040999e-01
3.687428353076040999e-01
3.351165456629728867e-01
3.351165456629728867e-01
3.504012227741689078e-01
3.504012227741689078e-01
3.504012227741689078e-01
3.576614444019869943e-01
3.576614444019869943e-01
3.255636224684753666e-01
3.255636224684753666e-01
3.255636224684753666e-01
3.328238440962934530e-01
3.328238440962934530e-01
3.255636224684753666e-01
3.255636224684753666e-01
3.255636224684753666e-01
3.156285823461979501e-01
3.156285823461979501e-01
3.167749331295376392e-01
3.167749331295376392e-01
3.167749331295376392e-01
3.049293083683607408e-01
3.049293083683607408e-01
3.026366068016813071e-01
3.026366068016813071e-01
3.026366068016813071e-01
3.236530378295758292e-01
3.236530378295758292e-01
3.045471914405808445e-01
3.045471914405808445e-01
3.045471914405808445e-01
2.919373328238440979e-01
2.919373328238440979e-01
3.186855177684371210e-01
3.186855177684371210e-01
3.186855177684371210e-01
3.144822315628582610e-01
3.144822315628582610e-01
3.018723729461215144e-01
3.018723729461215144e-01
3.018723729461215144e-01
3.076041268628200154e-01
3.076041268628200154e-01
2.804738249904470959e-01
2.804738249904470959e-01
2.804738249904470959e-01
3.014902560183416180e-01
3.014902560183416180e-01
3.064577760794803263e-01
3.064577760794803263e-01
3.064577760794803263e-01
2.961406190294230134e-01
2.961406190294230134e-01
3.037829575850209962e-01
3.037829575850209962e-01
3.037829575850209962e-01
3.026366068016813071e-01
3.026366068016813071e-01
2.651891478792510748e-01
2.651891478792510748e-01
2.651891478792510748e-01
2.720672525792892649e-01
2.720672525792892649e-01
2.842949942682460596e-01
2.842949942682460596e-01
2.842949942682460596e-01
2.842949942682460596e-01
2.842949942682460596e-01
2.632785632403515375e-01
2.632785632403515375e-01
2.632785632403515375e-01
2.858234619793657005e-01
2.858234619793657005e-01
2.927015666794038906e-01
2.927015666794038906e-01
2.927015666794038906e-01
2.888803974016048715e-01
2.888803974016048715e-01
2.869698127627053896e-01
2.869698127627053896e-01
2.869698127627053896e-01
2.915552158960642015e-01
2.915552158960642015e-01
2.747420710737485394e-01
2.747420710737485394e-01
2.747420710737485394e-01
2.594573939625525183e-01
2.594573939625525183e-01
2.590752770347726219e-01
2.590752770347726219e-01
2.590752770347726219e-01
2.865876958349254933e-01
2.865876958349254933e-01
2.911730989682843052e-01
2.911730989682843052e-01
2.911730989682843052e-01
2.873519296904852860e-01
2.873519296904852860e-01
2.884982804738249751e-01
2.884982804738249751e-01
2.884982804738249751e-01
2.606037447458922629e-01
2.606037447458922629e-01
2.812380588460068886e-01
2.812380588460068886e-01
2.812380588460068886e-01
2.865876958349254933e-01
2.865876958349254933e-01
2.907909820405044088e-01
2.907909820405044088e-01
2.907909820405044088e-01
2.609858616736721593e-01
2.609858616736721593e-01
2.930836836071837870e-01
2.930836836071837870e-01
2.930836836071837870e-01
2.797095911348873032e-01
2.797095911348873032e-01
2.869698127627053896e-01
2.869698127627053896e-01
2.869698127627053896e-01
2.904088651127245124e-01
2.904088651127245124e-01
2.793274742071073513e-01
2.793274742071073513e-01
2.793274742071073513e-01
2.881161635460450787e-01
2.881161635460450787e-01
2.774168895682078695e-01
2.774168895682078695e-01
2.774168895682078695e-01
2.667176155903706603e-01
2.667176155903706603e-01
2.579289262514329328e-01
2.579289262514329328e-01
2.579289262514329328e-01
2.846771111960260114e-01
2.846771111960260114e-01
2.617500955292319520e-01
2.617500955292319520e-01
2.617500955292319520e-01
2.900267481849446161e-01
2.900267481849446161e-01
2.598395108903324147e-01
2.598395108903324147e-01
2.598395108903324147e-01
2.934658005349636833e-01
2.934658005349636833e-01
2.583110431792128292e-01
2.583110431792128292e-01
2.583110431792128292e-01
2.632785632403515375e-01
2.632785632403515375e-01
2.617500955292319520e-01
2.617500955292319520e-01
2.617500955292319520e-01
2.636606801681314338e-01
2.636606801681314338e-01
2.548719908291937064e-01
2.548719908291937064e-01
2.850592281238059078e-01
2.850592281238059078e-01
2.850592281238059078e-01
2.762705387848681804e-01
2.762705387848681804e-01
2.552541077569736583e-01
2.552541077569736583e-01
2.552541077569736583e-01
2.510508215513947428e-01
2.510508215513947428e-01
2.648070309514711229e-01
2.648070309514711229e-01
2.648070309514711229e-01
2.785632403515475586e-01
2.785632403515475586e-01
2.640427970959113302e-01
2.640427970959113302e-01
2.640427970959113302e-01
2.789453572793274549e-01
2.789453572793274549e-01
2.479938861291555163e-01
2.479938861291555163e-01
2.479938861291555163e-01
2.793274742071073513e-01
2.793274742071073513e-01
2.785632403515475586e-01
2.785632403515475586e-01
2.785632403515475586e-01
2.613679786014520556e-01
2.613679786014520556e-01
2.495223538402751295e-01
2.495223538402751295e-01
2.495223538402751295e-01
2.418800152846771190e-01
2.418800152846771190e-01
2.667176155903706603e-01
2.667176155903706603e-01
2.667176155903706603e-01
2.487581199847153091e-01
2.487581199847153091e-01
2.651891478792510748e-01
2.651891478792510748e-01
2.651891478792510748e-01
2.682460833014902457e-01
2.682460833014902457e-01
2.651891478792510748e-01
2.651891478792510748e-01
2.651891478792510748e-01
2.376767290790982035e-01
2.376767290790982035e-01
2.342376767290791084e-01
2.342376767290791084e-01
2.342376767290791084e-01
2.334734428735192879e-01
2.334734428735192879e-01
2.445548337791364213e-01
2.445548337791364213e-01
2.445548337791364213e-01
2.449369507069163177e-01
2.449369507069163177e-01
2.617500955292319520e-01
2.617500955292319520e-01
2.617500955292319520e-01
2.544898739014138100e-01
2.544898739014138100e-01
2.353840275124187975e-01
2.353840275124187975e-01
2.353840275124187975e-01
2.544898739014138100e-01
2.544898739014138100e-01
2.350019105846389011e-01
2.350019105846389011e-01
2.350019105846389011e-01
2.273595720290408906e-01
2.273595720290408906e-01
2.464654184180359309e-01
2.464654184180359309e-01
2.464654184180359309e-01
2.541077569736339137e-01
2.541077569736339137e-01
2.506687046236148464e-01
2.506687046236148464e-01
2.506687046236148464e-01
2.506687046236148464e-01
2.506687046236148464e-01
2.365303782957585144e-01
2.365303782957585144e-01
2.365303782957585144e-01
2.510508215513947428e-01
2.510508215513947428e-01
2.434084829957967044e-01
2.434084829957967044e-01
2.434084829957967044e-01
2.414978983568972226e-01
2.414978983568972226e-01
2.472296522735957236e-01
2.472296522735957236e-01
2.472296522735957236e-01
2.319449751623997025e-01
2.319449751623997025e-01
2.460833014902560067e-01
2.460833014902560067e-01
2.460833014902560067e-01
2.162781811234237572e-01
2.162781811234237572e-01
2.445548337791364213e-01
2.445548337791364213e-01
2.445548337791364213e-01
2.204814673290026728e-01
2.204814673290026728e-01
2.155139472678639645e-01
2.155139472678639645e-01
2.155139472678639645e-01
2.220099350401222860e-01
2.220099350401222860e-01
2.300343905235001929e-01
2.300343905235001929e-01
2.300343905235001929e-01
2.273595720290408906e-01
2.273595720290408906e-01
2.327092090179594952e-01
2.327092090179594952e-01
2.327092090179594952e-01
2.288880397401604760e-01
2.288880397401604760e-01
2.086358425678257467e-01
2.086358425678257467e-01
2.086358425678257467e-01
2.036683225066870384e-01
2.036683225066870384e-01
2.071073748567061612e-01
2.071073748567061612e-01
2.071073748567061612e-01
2.139854795567443513e-01
2.139854795567443513e-01
2.212457011845624655e-01
2.212457011845624655e-01
2.212457011845624655e-01
2.327092090179594952e-01
2.327092090179594952e-01
2.032862055789071420e-01
2.032862055789071420e-01
2.032862055789071420e-01
2.220099350401222860e-01
2.220099350401222860e-01
2.143675964845242754e-01
2.143675964845242754e-01
2.143675964845242754e-01
2.025219717233473493e-01
2.025219717233473493e-01
2.281238058846006833e-01
2.281238058846006833e-01
2.281238058846006833e-01
1.910584638899503196e-01
1.910584638899503196e-01
2.151318303400840681e-01
2.151318303400840681e-01
2.151318303400840681e-01
2.036683225066870384e-01
2.036683225066870384e-01
2.216278181123423896e-01
2.216278181123423896e-01
2.216278181123423896e-01
1.948796331677493388e-01
1.948796331677493388e-01
2.170424149789835777e-01
2.170424149789835777e-01
2.170424149789835777e-01
1.868551776843714041e-01
1.868551776843714041e-01
2.078716087122659539e-01
2.078716087122659539e-01
2.078716087122659539e-01
2.155139472678639645e-01
2.155139472678639645e-01
2.139854795567443513e-01
2.139854795567443513e-01
2.139854795567443513e-01
1.887657623232709136e-01
1.887657623232709136e-01
2.063431410011463407e-01
2.063431410011463407e-01
2.063431410011463407e-01
1.887657623232709136e-01
1.887657623232709136e-01
2.128391287734046622e-01
2.128391287734046622e-01
2.128391287734046622e-01
1.872372946121513282e-01
1.872372946121513282e-01
1.880015284677111209e-01
1.880015284677111209e-01
1.880015284677111209e-01
1.853267099732518186e-01
1.853267099732518186e-01
2.071073748567061612e-01
2.071073748567061612e-01
2.071073748567061612e-01
2.032862055789071420e-01
2.032862055789071420e-01
2.032862055789071420e-01
2.032862055789071420e-01
2.116927779900649731e-01
2.116927779900649731e-01
2.116927779900649731e-01
2.067252579289262648e-01
2.067252579289262648e-01
1.837982422621322054e-01
1.837982422621322054e-01
1.837982422621322054e-01
2.124570118456247658e-01
2.124570118456247658e-01
2.051967902178066516e-01
2.051967902178066516e-01
2.051967902178066516e-01
1.811234237676729031e-01
1.811234237676729031e-01
2.044325563622468589e-01
2.044325563622468589e-01
2.044325563622468589e-01
2.044325563622468589e-01
2.044325563622468589e-01
1.906763469621704232e-01
1.906763469621704232e-01
1.906763469621704232e-01
1.815055406954527994e-01
1.815055406954527994e-01
1.776843714176538080e-01
1.776843714176538080e-01
1.776843714176538080e-01
2.113106610622850490e-01
2.113106610622850490e-01
2.032862055789071420e-01
2.032862055789071420e-01
2.032862055789071420e-01
1.765380206343140912e-01
1.765380206343140912e-01
1.967902178066488483e-01
1.967902178066488483e-01
1.967902178066488483e-01
2.086358425678257467e-01
2.086358425678257467e-01
1.956438670233091315e-01
1.956438670233091315e-01
1.956438670233091315e-01
2.036683225066870384e-01
2.036683225066870384e-01
2.071073748567061612e-01
2.071073748567061612e-01
2.071073748567061612e-01
2.032862055789071420e-01
2.032862055789071420e-01
1.742453190676346853e-01
1.742453190676346853e-01
1.742453190676346853e-01
2.009935040122277361e-01
2.009935040122277361e-01
1.723347344287352034e-01
1.723347344287352034e-01
1.723347344287352034e-01
1.734810852120748925e-01
1.734810852120748925e-01
2.059610240733664444e-01
2.059610240733664444e-01
2.059610240733664444e-01
1.742453190676346853e-01
1.742453190676346853e-01
1.941153993121895183e-01
1.941153993121895183e-01
1.941153993121895183e-01
1.788307222009934971e-01
1.788307222009934971e-01
1.730989682842949962e-01
1.730989682842949962e-01
1.730989682842949962e-01
1.925869316010699328e-01
1.925869316010699328e-01
1.696599159342759011e-01
1.696599159342759011e-01
1.696599159342759011e-01
1.860909438288116113e-01
1.860909438288116113e-01
1.864730607565915077e-01
1.864730607565915077e-01
1.864730607565915077e-01
1.868551776843714041e-01
1.868551776843714041e-01
2.006113870844478397e-01
2.006113870844478397e-01
2.006113870844478397e-01
1.719526175009552793e-01
1.719526175009552793e-01
2.044325563622468589e-01
2.044325563622468589e-01
2.044325563622468589e-01
1.956438670233091315e-01
1.956438670233091315e-01
1.983186855177684338e-01
1.983186855177684338e-01
1.983186855177684338e-01
1.983186855177684338e-01
1.983186855177684338e-01
1.944975162399694424e-01
1.944975162399694424e-01
1.944975162399694424e-01
1.883836453954910173e-01
1.883836453954910173e-01
1.818876576232326958e-01
1.818876576232326958e-01
1.818876576232326958e-01
2.002292701566679434e-01
2.002292701566679434e-01
1.792128391287733935e-01
1.792128391287733935e-01
1.792128391287733935e-01
2.013756209400076325e-01
2.013756209400076325e-01
1.666029805120366747e-01
1.666029805120366747e-01
1.666029805120366747e-01
1.841803591899121018e-01
1.841803591899121018e-01
1.769201375620939876e-01
1.769201375620939876e-01
1.769201375620939876e-01
1.834161253343523090e-01
1.834161253343523090e-01
1.719526175009552793e-01
1.719526175009552793e-01
1.719526175009552793e-01
1.734810852120748925e-01
1.734810852120748925e-01
1.994650363011081506e-01
1.994650363011081506e-01
1.994650363011081506e-01
1.956438670233091315e-01
1.956438670233091315e-01
1.994650363011081506e-01
1.994650363011081506e-01
1.994650363011081506e-01
1.742453190676346853e-01
1.742453190676346853e-01
1.960259839510890278e-01
1.960259839510890278e-01
1.960259839510890278e-01
1.639281620175773724e-01
1.639281620175773724e-01
1.631639281620175796e-01
1.631639281620175796e-01
1.631639281620175796e-01
1.746274359954146094e-01
1.746274359954146094e-01
1.941153993121895183e-01
1.941153993121895183e-01
1.941153993121895183e-01
1.639281620175773724e-01
1.639281620175773724e-01
1.914405808177302160e-01
1.914405808177302160e-01
1.914405808177302160e-01
1.646923958731371929e-01
1.646923958731371929e-01
1.627818112342376833e-01
1.627818112342376833e-01
1.627818112342376833e-01
1.700420328620557975e-01
1.700420328620557975e-01
1.685135651509361843e-01
1.685135651509361843e-01
1.685135651509361843e-01
1.952617500955292351e-01
1.952617500955292351e-01
1.967902178066488483e-01
1.967902178066488483e-01
1.967902178066488483e-01
1.837982422621322054e-01
1.837982422621322054e-01
1.937332823844096219e-01
1.937332823844096219e-01
1.937332823844096219e-01
1.681314482231562879e-01
1.681314482231562879e-01
1.746274359954146094e-01
1.746274359954146094e-01
1.746274359954146094e-01
1.646923958731371929e-01
1.646923958731371929e-01
1.872372946121513282e-01
1.872372946121513282e-01
1.872372946121513282e-01
1.769201375620939876e-01
1.769201375620939876e-01
1.666029805120366747e-01
1.666029805120366747e-01
1.666029805120366747e-01
1.788307222009934971e-01
1.788307222009934971e-01
1.910584638899503196e-01
1.910584638899503196e-01
1.910584638899503196e-01
1.688956820787160806e-01
1.688956820787160806e-01
1.734810852120748925e-01
1.734810852120748925e-01
1.734810852120748925e-01
1.952617500955292351e-01
1.952617500955292351e-01
2.006113870844478397e-01
2.006113870844478397e-01
1.708062667176155902e-01
1.708062667176155902e-01
1.708062667176155902e-01
1.914405808177302160e-01
1.914405808177302160e-01
1.757737867787542985e-01
1.757737867787542985e-01
1.757737867787542985e-01
1.700420328620557975e-01
1.700420328620557975e-01
1.746274359954146094e-01
1.746274359954146094e-01
1.746274359954146094e-01
1.853267099732518186e-01
1.853267099732518186e-01
1.860909438288116113e-01
1.860909438288116113e-01
1.860909438288116113e-01
1.983186855177684338e-01
1.983186855177684338e-01
1.841803591899121018e-01
1.841803591899121018e-01
1.841803591899121018e-01
1.669850974398165711e-01
1.669850974398165711e-01
1.719526175009552793e-01
1.719526175009552793e-01
1.719526175009552793e-01
1.994650363011081506e-01
1.994650363011081506e-01
1.700420328620557975e-01
1.700420328620557975e-01
1.700420328620557975e-01
1.753916698509744021e-01
1.753916698509744021e-01
1.925869316010699328e-01
1.925869316010699328e-01
1.925869316010699328e-01
1.776843714176538080e-01
1.776843714176538080e-01
1.658387466564768820e-01
1.658387466564768820e-01
1.658387466564768820e-01
1.967902178066488483e-01
1.967902178066488483e-01
1.734810852120748925e-01
1.734810852120748925e-01
1.734810852120748925e-01
1.853267099732518186e-01
1.853267099732518186e-01
1.719526175009552793e-01
1.719526175009552793e-01
1.719526175009552793e-01
1.799770729843332140e-01
1.799770729843332140e-01
1.987008024455483302e-01
1.987008024455483302e-01
1.987008024455483302e-01
1.944975162399694424e-01
1.944975162399694424e-01
1.650745128009170892e-01
1.650745128009170892e-01
1.650745128009170892e-01
1.685135651509361843e-01
1.685135651509361843e-01
1.803591899121131104e-01
1.803591899121131104e-01
1.803591899121131104e-01
1.864730607565915077e-01
1.864730607565915077e-01
1.669850974398165711e-01
1.669850974398165711e-01
1.669850974398165711e-01
1.910584638899503196e-01
1.910584638899503196e-01
1.967902178066488483e-01
1.967902178066488483e-01
1.967902178066488483e-01
1.658387466564768820e-01
1.658387466564768820e-01
1.929690485288498292e-01
1.929690485288498292e-01
1.929690485288498292e-01
1.730989682842949962e-01
1.730989682842949962e-01
1.964081008788689242e-01
1.964081008788689242e-01
1.964081008788689242e-01
1.658387466564768820e-01
1.658387466564768820e-01
1.857088269010317150e-01
1.857088269010317150e-01
1.857088269010317150e-01
1.822697745510126199e-01
1.822697745510126199e-01
1.681314482231562879e-01
1.681314482231562879e-01
1.681314482231562879e-01
1.597248758119984846e-01
1.597248758119984846e-01
1.887657623232709136e-01
1.887657623232709136e-01
1.887657623232709136e-01
1.623996943064577869e-01
1.623996943064577869e-01
1.685135651509361843e-01
1.685135651509361843e-01
1.685135651509361843e-01
1.727168513565150998e-01
1.727168513565150998e-01
1.604891096675582773e-01
1.604891096675582773e-01
1.604891096675582773e-01
1.677493312953763915e-01
1.677493312953763915e-01
1.849445930454719222e-01
1.849445930454719222e-01
1.849445930454719222e-01
1.520825372564004463e-01
1.520825372564004463e-01
1.639281620175773724e-01
1.639281620175773724e-01
1.639281620175773724e-01
1.631639281620175796e-01
1.631639281620175796e-01
1.853267099732518186e-01
1.853267099732518186e-01
1.853267099732518186e-01
1.799770729843332140e-01
1.799770729843332140e-01
1.784486052732136008e-01
1.784486052732136008e-01
1.784486052732136008e-01
1.528467711119602668e-01
1.528467711119602668e-01
1.643102789453572687e-01
1.643102789453572687e-01
1.643102789453572687e-01
1.593427588842185605e-01
1.593427588842185605e-01
1.803591899121131104e-01
1.803591899121131104e-01
1.803591899121131104e-01
1.841803591899121018e-01
1.841803591899121018e-01
1.604891096675582773e-01
1.604891096675582773e-01
1.604891096675582773e-01
1.528467711119602668e-01
1.528467711119602668e-01
1.864730607565915077e-01
1.864730607565915077e-01
1.864730607565915077e-01
1.520825372564004463e-01
1.520825372564004463e-01
1.608712265953381737e-01
1.608712265953381737e-01
1.608712265953381737e-01
1.532288880397401631e-01
1.532288880397401631e-01
1.868551776843714041e-01
1.868551776843714041e-01
1.868551776843714041e-01
1.784486052732136008e-01
1.784486052732136008e-01
1.723347344287352034e-01
1.723347344287352034e-01
1.723347344287352034e-01
1.776843714176538080e-01
1.776843714176538080e-01
1.780664883454337044e-01
1.780664883454337044e-01
1.780664883454337044e-01
1.643102789453572687e-01
1.643102789453572687e-01
1.627818112342376833e-01
1.627818112342376833e-01
1.627818112342376833e-01
1.688956820787160806e-01
1.688956820787160806e-01
1.543752388230798522e-01
1.543752388230798522e-01
1.543752388230798522e-01
1.631639281620175796e-01
1.631639281620175796e-01
1.669850974398165711e-01
1.669850974398165711e-01
1.669850974398165711e-01
1.948796331677493388e-01
1.948796331677493388e-01
1.753916698509744021e-01
1.753916698509744021e-01
1.753916698509744021e-01
1.837982422621322054e-01
1.837982422621322054e-01
1.784486052732136008e-01
1.784486052732136008e-01
1.784486052732136008e-01
1.845624761176920259e-01
1.845624761176920259e-01
2.136033626289644549e-01
2.136033626289644549e-01
2.055789071455865480e-01
2.055789071455865480e-01
2.055789071455865480e-01
2.151318303400840681e-01
2.151318303400840681e-01
2.074894917844860576e-01
2.074894917844860576e-01
2.074894917844860576e-01
2.067252579289262648e-01
2.067252579289262648e-01
2.151318303400840681e-01
2.151318303400840681e-01
2.151318303400840681e-01
2.136033626289644549e-01
2.136033626289644549e-01
2.525792892625143282e-01
2.525792892625143282e-01
2.525792892625143282e-01
2.483760030569354127e-01
2.483760030569354127e-01
2.426442491402369117e-01
2.426442491402369117e-01
2.426442491402369117e-01
2.735957202904088503e-01
2.735957202904088503e-01
2.693924340848299348e-01
2.693924340848299348e-01
2.693924340848299348e-01
2.858234619793657005e-01
2.858234619793657005e-01
2.693924340848299348e-01
2.693924340848299348e-01
2.693924340848299348e-01
2.770347726404279731e-01
2.770347726404279731e-01
2.808559419182269923e-01
2.808559419182269923e-01
2.808559419182269923e-01
3.137179977072984127e-01
3.137179977072984127e-01
3.137179977072984127e-01
3.137179977072984127e-01
3.137179977072984127e-01
3.247993886129155738e-01
3.247993886129155738e-01
3.347344287351929903e-01
3.347344287351929903e-01
3.347344287351929903e-01
3.320596102407336603e-01
3.320596102407336603e-01
3.397019487963316986e-01
3.397019487963316986e-01
3.397019487963316986e-01
3.186855177684371210e-01
3.186855177684371210e-01
3.217424531906763474e-01
3.217424531906763474e-01
3.217424531906763474e-01
3.603362628964463243e-01
3.603362628964463243e-01
3.423767672907909732e-01
3.423767672907909732e-01
3.423767672907909732e-01
3.526939243408482860e-01
3.526939243408482860e-01
3.595720290408865316e-01
3.595720290408865316e-01
3.595720290408865316e-01
3.790599923576614683e-01
3.790599923576614683e-01
3.500191058463890115e-01
3.500191058463890115e-01
3.500191058463890115e-01
3.523118074130683897e-01
3.523118074130683897e-01
3.737103553687428081e-01
3.737103553687428081e-01
3.737103553687428081e-01
3.920519679021780557e-01
3.920519679021780557e-01
3.599541459686664280e-01
3.599541459686664280e-01
3.599541459686664280e-01
3.970194879633167639e-01
3.970194879633167639e-01
4.023691249522353686e-01
4.023691249522353686e-01
4.023691249522353686e-01
3.909056171188383666e-01
3.909056171188383666e-01
3.717997707298433263e-01
3.717997707298433263e-01
3.717997707298433263e-01
4.058081773022544914e-01
4.058081773022544914e-01
3.798242262132212610e-01
3.798242262132212610e-01
3.798242262132212610e-01
3.813526939243408465e-01
3.813526939243408465e-01
3.966373710355368676e-01
3.966373710355368676e-01
3.966373710355368676e-01
3.954910202521971785e-01
3.954910202521971785e-01
3.874665647688192438e-01
3.874665647688192438e-01
3.874665647688192438e-01
4.149789835689721151e-01
4.149789835689721151e-01
3.924340848299579521e-01
3.924340848299579521e-01
3.924340848299579521e-01
4.161253343523118042e-01
4.161253343523118042e-01
3.974016048910966603e-01
3.974016048910966603e-01
3.974016048910966603e-01
4.134505158578525297e-01
4.134505158578525297e-01
3.970194879633167639e-01
3.970194879633167639e-01
3.970194879633167639e-01
3.889950324799388848e-01
3.889950324799388848e-01
3.878486816965991402e-01
3.878486816965991402e-01
3.878486816965991402e-01
4.004585403133358867e-01
4.004585403133358867e-01
3.855559801299197620e-01
3.855559801299197620e-01
3.855559801299197620e-01
3.832632785632403283e-01
3.832632785632403283e-01
3.870844478410393474e-01
3.870844478410393474e-01
3.870844478410393474e-01
3.916698509743981593e-01
3.916698509743981593e-01
4.161253343523118042e-01
4.161253343523118042e-01
4.161253343523118042e-01
4.207107374856706161e-01
4.207107374856706161e-01
3.901413832632785739e-01
3.901413832632785739e-01
3.901413832632785739e-01
4.153611004967520115e-01
4.153611004967520115e-01
4.031333588077951613e-01
4.031333588077951613e-01
4.031333588077951613e-01
3.989300726022163013e-01
3.989300726022163013e-01
4.065724111578142841e-01
4.065724111578142841e-01
4.065724111578142841e-01
3.901413832632785739e-01
3.901413832632785739e-01
4.081008788689338695e-01
4.081008788689338695e-01
4.081008788689338695e-01
4.035154757355751132e-01
4.035154757355751132e-01
3.756209400076423455e-01
3.756209400076423455e-01
3.756209400076423455e-01
4.061902942300343877e-01
4.061902942300343877e-01
3.931983186855177448e-01
3.931983186855177448e-01
3.931983186855177448e-01
3.981658387466564530e-01
3.981658387466564530e-01
3.817348108521207428e-01
3.817348108521207428e-01
3.817348108521207428e-01
3.733282384409629118e-01
3.733282384409629118e-01
3.878486816965991402e-01
3.878486816965991402e-01
3.878486816965991402e-01
4.004585403133358867e-01
4.004585403133358867e-01
3.687428353076040999e-01
3.687428353076040999e-01
3.687428353076040999e-01
3.794421092854413646e-01
3.794421092854413646e-01
3.779136415743217237e-01
3.779136415743217237e-01
3.779136415743217237e-01
3.924340848299579521e-01
3.924340848299579521e-01
3.660680168131448253e-01
3.660680168131448253e-01
3.660680168131448253e-01
3.771494077187619309e-01
3.771494077187619309e-01
3.771494077187619309e-01
3.771494077187619309e-01
3.889950324799388848e-01
3.889950324799388848e-01
3.889950324799388848e-01
3.844096293465800729e-01
3.844096293465800729e-01
3.645395491020252399e-01
3.645395491020252399e-01
3.645395491020252399e-01
3.546045089797478234e-01
3.546045089797478234e-01
3.637753152464653916e-01
3.637753152464653916e-01
3.637753152464653916e-01
3.721818876576232227e-01
3.721818876576232227e-01
3.813526939243408465e-01
3.813526939243408465e-01
3.813526939243408465e-01
3.546045089797478234e-01
3.546045089797478234e-01
3.706534199465036372e-01
3.706534199465036372e-01
3.706534199465036372e-01
3.450515857852503032e-01
3.450515857852503032e-01
3.542223920519679270e-01
3.542223920519679270e-01
3.542223920519679270e-01
3.481085212074894741e-01
3.481085212074894741e-01
3.672143675964845144e-01
3.672143675964845144e-01
3.672143675964845144e-01
3.332059610240733494e-01
3.332059610240733494e-01
3.565150936186473052e-01
3.565150936186473052e-01
3.565150936186473052e-01
3.576614444019869943e-01
3.576614444019869943e-01
3.591899121131066352e-01
3.591899121131066352e-01
3.591899121131066352e-01
3.213603362628964510e-01
3.213603362628964510e-01
3.213603362628964510e-01
3.213603362628964510e-01
3.213603362628964510e-01
3.186855177684371210e-01
3.186855177684371210e-01
3.305311425296140748e-01
3.305311425296140748e-01
3.305311425296140748e-01
3.179212839128773282e-01
3.179212839128773282e-01
3.332059610240733494e-01
3.332059610240733494e-01
3.332059610240733494e-01
3.053114252961406372e-01
3.053114252961406372e-01
3.290026748184944339e-01
3.290026748184944339e-01
3.290026748184944339e-01
2.927015666794038906e-01
2.927015666794038906e-01
3.247993886129155738e-01
3.247993886129155738e-01
3.247993886129155738e-01
2.927015666794038906e-01
2.927015666794038906e-01
2.850592281238059078e-01
2.850592281238059078e-01
2.850592281238059078e-01
3.014902560183416180e-01
3.014902560183416180e-01
3.160106992739778464e-01
3.160106992739778464e-01
3.160106992739778464e-01
3.041650745128008926e-01
3.041650745128008926e-01
2.846771111960260114e-01
2.846771111960260114e-01
2.846771111960260114e-01
2.751241880015284913e-01
2.751241880015284913e-01
2.915552158960642015e-01
2.915552158960642015e-01
2.915552158960642015e-01
2.686282002292701421e-01
2.686282002292701421e-01
2.884982804738249751e-01
2.884982804738249751e-01
2.884982804738249751e-01
2.816201757737867850e-01
2.816201757737867850e-01
2.808559419182269923e-01
2.808559419182269923e-01
2.808559419182269923e-01
2.648070309514711229e-01
2.648070309514711229e-01
2.556362246847535546e-01
2.556362246847535546e-01
2.556362246847535546e-01
2.529614061902942246e-01
2.529614061902942246e-01
2.590752770347726219e-01
2.590752770347726219e-01
2.590752770347726219e-01
2.674818494459304530e-01
2.674818494459304530e-01
2.808559419182269923e-01
2.808559419182269923e-01
2.808559419182269923e-01
2.586931601069927256e-01
2.586931601069927256e-01
2.644249140236912266e-01
2.644249140236912266e-01
2.644249140236912266e-01
2.506687046236148464e-01
2.506687046236148464e-01
2.713030187237294721e-01
2.713030187237294721e-01
2.713030187237294721e-01
2.655712648070309712e-01
2.655712648070309712e-01
2.808559419182269923e-01
2.808559419182269923e-01
2.808559419182269923e-01
2.808559419182269923e-01
2.808559419182269923e-01
2.564004585403133474e-01
2.564004585403133474e-01
2.564004585403133474e-01
2.609858616736721593e-01
2.609858616736721593e-01
2.743599541459686431e-01
2.743599541459686431e-01
2.743599541459686431e-01
2.770347726404279731e-01
2.770347726404279731e-01
2.479938861291555163e-01
2.479938861291555163e-01
2.479938861291555163e-01
2.705387848681696794e-01
2.705387848681696794e-01
2.602216278181123665e-01
2.602216278181123665e-01
2.602216278181123665e-01
2.518150554069545355e-01
2.518150554069545355e-01
2.586931601069927256e-01
2.586931601069927256e-01
2.586931601069927256e-01
2.732136033626289540e-01
2.732136033626289540e-01
2.793274742071073513e-01
2.793274742071073513e-01
2.793274742071073513e-01
2.785632403515475586e-01
2.785632403515475586e-01
2.651891478792510748e-01
2.651891478792510748e-01
2.651891478792510748e-01
2.479938861291555163e-01
2.479938861291555163e-01
2.460833014902560067e-01
2.460833014902560067e-01
2.460833014902560067e-01
2.441727168513565249e-01
2.441727168513565249e-01
2.426442491402369117e-01
2.426442491402369117e-01
2.426442491402369117e-01
2.445548337791364213e-01
2.445548337791364213e-01
2.655712648070309712e-01
2.655712648070309712e-01
2.655712648070309712e-01
2.583110431792128292e-01
2.583110431792128292e-01
2.621322124570118484e-01
2.621322124570118484e-01
2.621322124570118484e-01
2.625143293847917447e-01
2.625143293847917447e-01
2.728314864348490576e-01
2.728314864348490576e-01
2.728314864348490576e-01
2.781811234237676622e-01
2.781811234237676622e-01
2.686282002292701421e-01
2.686282002292701421e-01
2.686282002292701421e-01
2.430263660680168081e-01
2.430263660680168081e-01
2.556362246847535546e-01
2.556362246847535546e-01
2.556362246847535546e-01
2.422621322124570153e-01
2.422621322124570153e-01
2.426442491402369117e-01
2.426442491402369117e-01
2.426442491402369117e-01
2.720672525792892649e-01
2.720672525792892649e-01
2.403515475735575058e-01
2.403515475735575058e-01
2.571646923958731401e-01
2.571646923958731401e-01
2.571646923958731401e-01
2.701566679403897830e-01
2.701566679403897830e-01
2.693924340848299348e-01
2.693924340848299348e-01
2.693924340848299348e-01
2.460833014902560067e-01
2.460833014902560067e-01
2.514329384791746391e-01
2.514329384791746391e-01
2.514329384791746391e-01
2.395873137179977130e-01
2.395873137179977130e-01
2.663354986625907639e-01
2.663354986625907639e-01
2.663354986625907639e-01
2.667176155903706603e-01
2.667176155903706603e-01
2.468475353458158272e-01
2.468475353458158272e-01
2.468475353458158272e-01
2.384409629346579962e-01
2.384409629346579962e-01
2.560183416125334510e-01
2.560183416125334510e-01
2.560183416125334510e-01
2.621322124570118484e-01
2.621322124570118484e-01
2.323270920901795988e-01
2.323270920901795988e-01
2.323270920901795988e-01
2.372946121513183071e-01
2.372946121513183071e-01
2.292701566679404002e-01
2.292701566679404002e-01
2.292701566679404002e-01
2.548719908291937064e-01
2.548719908291937064e-01
2.418800152846771190e-01
2.418800152846771190e-01
2.418800152846771190e-01
2.548719908291937064e-01
2.548719908291937064e-01
2.399694306457776094e-01
2.399694306457776094e-01
2.399694306457776094e-01
2.414978983568972226e-01
2.414978983568972226e-01
2.319449751623997025e-01
2.319449751623997025e-01
2.319449751623997025e-01
2.170424149789835777e-01
2.170424149789835777e-01
2.472296522735957236e-01
2.472296522735957236e-01
2.472296522735957236e-01
2.170424149789835777e-01
2.170424149789835777e-01
2.460833014902560067e-01
2.460833014902560067e-01
2.460833014902560067e-01
2.265953381734810979e-01
2.265953381734810979e-01
2.155139472678639645e-01
2.155139472678639645e-01
2.155139472678639645e-01
2.197172334734428800e-01
2.197172334734428800e-01
2.166602980512036813e-01
2.166602980512036813e-01
2.166602980512036813e-01
2.403515475735575058e-01
2.403515475735575058e-01
2.067252579289262648e-01
2.067252579289262648e-01
2.067252579289262648e-01
2.395873137179977130e-01
2.395873137179977130e-01
2.376767290790982035e-01
2.376767290790982035e-01
2.376767290790982035e-01
2.361482613679785902e-01
2.361482613679785902e-01
2.074894917844860576e-01
2.074894917844860576e-01
2.074894917844860576e-01
2.009935040122277361e-01
2.009935040122277361e-01
2.071073748567061612e-01
2.071073748567061612e-01
2.071073748567061612e-01
2.097821933511654635e-01
2.097821933511654635e-01
2.174245319067634741e-01
2.174245319067634741e-01
2.174245319067634741e-01
1.948796331677493388e-01
1.948796331677493388e-01
1.987008024455483302e-01
1.987008024455483302e-01
1.987008024455483302e-01
1.960259839510890278e-01
1.960259839510890278e-01
2.281238058846006833e-01
2.281238058846006833e-01
2.281238058846006833e-01
2.235384027512418714e-01
2.235384027512418714e-01
1.998471532288880470e-01
1.998471532288880470e-01
1.998471532288880470e-01
1.925869316010699328e-01
1.925869316010699328e-01
1.956438670233091315e-01
1.956438670233091315e-01
1.956438670233091315e-01
2.212457011845624655e-01
2.212457011845624655e-01
2.040504394344669348e-01
2.040504394344669348e-01
2.040504394344669348e-01
2.044325563622468589e-01
2.044325563622468589e-01
2.197172334734428800e-01
2.197172334734428800e-01
2.197172334734428800e-01
2.116927779900649731e-01
2.116927779900649731e-01
2.051967902178066516e-01
2.051967902178066516e-01
2.051967902178066516e-01
1.841803591899121018e-01
1.841803591899121018e-01
2.116927779900649731e-01
2.116927779900649731e-01
2.116927779900649731e-01
1.818876576232326958e-01
1.818876576232326958e-01
2.055789071455865480e-01
2.055789071455865480e-01
2.055789071455865480e-01
1.818876576232326958e-01
1.818876576232326958e-01
1.803591899121131104e-01
1.803591899121131104e-01
1.803591899121131104e-01
1.826518914787925163e-01
1.826518914787925163e-01
2.036683225066870384e-01
2.036683225066870384e-01
2.036683225066870384e-01
2.013756209400076325e-01
2.013756209400076325e-01
1.994650363011081506e-01
1.994650363011081506e-01
1.994650363011081506e-01
2.036683225066870384e-01
2.036683225066870384e-01
1.746274359954146094e-01
1.746274359954146094e-01
1.746274359954146094e-01
1.788307222009934971e-01
1.788307222009934971e-01
1.730989682842949962e-01
1.730989682842949962e-01
1.730989682842949962e-01
2.029040886511272457e-01
2.029040886511272457e-01
1.902942300343905269e-01
1.902942300343905269e-01
1.902942300343905269e-01
1.994650363011081506e-01
1.994650363011081506e-01
1.944975162399694424e-01
1.944975162399694424e-01
1.944975162399694424e-01
1.757737867787542985e-01
1.757737867787542985e-01
1.899121131066106305e-01
1.899121131066106305e-01
1.899121131066106305e-01
1.730989682842949962e-01
1.730989682842949962e-01
2.032862055789071420e-01
2.032862055789071420e-01
2.032862055789071420e-01
1.872372946121513282e-01
1.872372946121513282e-01
1.872372946121513282e-01
1.872372946121513282e-01
1.872372946121513282e-01
1.822697745510126199e-01
1.822697745510126199e-01
2.021398547955674529e-01
2.021398547955674529e-01
2.021398547955674529e-01
1.826518914787925163e-01
1.826518914787925163e-01
1.975544516622086411e-01
1.975544516622086411e-01
1.662208635842567783e-01
1.662208635842567783e-01
1.662208635842567783e-01
1.650745128009170892e-01
1.650745128009170892e-01
1.635460450897974760e-01
1.635460450897974760e-01
1.635460450897974760e-01
1.646923958731371929e-01
1.646923958731371929e-01
1.872372946121513282e-01
1.872372946121513282e-01
1.872372946121513282e-01
1.623996943064577869e-01
1.623996943064577869e-01
1.826518914787925163e-01
1.826518914787925163e-01
1.826518914787925163e-01
1.666029805120366747e-01
1.666029805120366747e-01
1.944975162399694424e-01
1.944975162399694424e-01
1.944975162399694424e-01
1.857088269010317150e-01
1.857088269010317150e-01
1.895299961788307341e-01
1.895299961788307341e-01
1.895299961788307341e-01
1.623996943064577869e-01
1.623996943064577869e-01
1.818876576232326958e-01
1.818876576232326958e-01
1.818876576232326958e-01
1.620175773786778628e-01
1.620175773786778628e-01
1.906763469621704232e-01
1.906763469621704232e-01
1.906763469621704232e-01
1.616354604508979664e-01
1.616354604508979664e-01
1.929690485288498292e-01
1.929690485288498292e-01
1.929690485288498292e-01
1.581964081008788714e-01
1.581964081008788714e-01
1.757737867787542985e-01
1.757737867787542985e-01
1.757737867787542985e-01
1.673672143675964952e-01
1.673672143675964952e-01
1.799770729843332140e-01
1.799770729843332140e-01
1.799770729843332140e-01
1.654566297286969856e-01
1.654566297286969856e-01
1.799770729843332140e-01
1.799770729843332140e-01
1.799770729843332140e-01
1.589606419564386641e-01
1.589606419564386641e-01
1.880015284677111209e-01
1.880015284677111209e-01
1.880015284677111209e-01
1.708062667176155902e-01
1.708062667176155902e-01
1.662208635842567783e-01
1.662208635842567783e-01
1.662208635842567783e-01
1.872372946121513282e-01
1.872372946121513282e-01
1.623996943064577869e-01
1.623996943064577869e-01
1.623996943064577869e-01
1.639281620175773724e-01
1.639281620175773724e-01
1.730989682842949962e-01
1.730989682842949962e-01
1.730989682842949962e-01
1.589606419564386641e-01
1.589606419564386641e-01
1.559037065341994654e-01
1.559037065341994654e-01
1.559037065341994654e-01
1.860909438288116113e-01
1.860909438288116113e-01
1.597248758119984846e-01
1.597248758119984846e-01
1.597248758119984846e-01
1.864730607565915077e-01
1.864730607565915077e-01
1.555215896064195691e-01
1.555215896064195691e-01
1.555215896064195691e-01
1.773022544898739117e-01
1.773022544898739117e-01
1.857088269010317150e-01
1.857088269010317150e-01
1.857088269010317150e-01
1.837982422621322054e-01
1.837982422621322054e-01
1.616354604508979664e-01
1.616354604508979664e-01
1.616354604508979664e-01
1.559037065341994654e-01
1.559037065341994654e-01
1.773022544898739117e-01
1.773022544898739117e-01
1.773022544898739117e-01
1.585785250286587678e-01
1.585785250286587678e-01
1.895299961788307341e-01
1.895299961788307341e-01
1.895299961788307341e-01
1.780664883454337044e-01
1.780664883454337044e-01
1.860909438288116113e-01
1.860909438288116113e-01
1.860909438288116113e-01
1.795949560565533176e-01
1.795949560565533176e-01
1.639281620175773724e-01
1.639281620175773724e-01
1.639281620175773724e-01
1.654566297286969856e-01
1.654566297286969856e-01
1.841803591899121018e-01
1.841803591899121018e-01
1.841803591899121018e-01
1.604891096675582773e-01
1.604891096675582773e-01
1.700420328620557975e-01
1.700420328620557975e-01
1.700420328620557975e-01
1.551394726786396727e-01
1.551394726786396727e-01
1.547573557508597764e-01
1.547573557508597764e-01
1.547573557508597764e-01
1.532288880397401631e-01
1.532288880397401631e-01
1.578142911730989750e-01
1.578142911730989750e-01
1.578142911730989750e-01
1.662208635842567783e-01
1.662208635842567783e-01
1.860909438288116113e-01
1.860909438288116113e-01
1.860909438288116113e-01
1.727168513565150998e-01
1.727168513565150998e-01
1.681314482231562879e-01
1.681314482231562879e-01
1.681314482231562879e-01
1.578142911730989750e-01
1.578142911730989750e-01
1.662208635842567783e-01
1.662208635842567783e-01
1.662208635842567783e-01
1.532288880397401631e-01
1.532288880397401631e-01
1.880015284677111209e-01
1.880015284677111209e-01
1.880015284677111209e-01
1.543752388230798522e-01
1.543752388230798522e-01
1.604891096675582773e-01
1.604891096675582773e-01
1.604891096675582773e-01
1.841803591899121018e-01
1.841803591899121018e-01
1.627818112342376833e-01
1.627818112342376833e-01
1.627818112342376833e-01
1.803591899121131104e-01
1.803591899121131104e-01
1.623996943064577869e-01
1.623996943064577869e-01
1.623996943064577869e-01
1.826518914787925163e-01
1.826518914787925163e-01
1.524646541841803704e-01
1.524646541841803704e-01
1.524646541841803704e-01
1.497898356897210681e-01
1.497898356897210681e-01
1.841803591899121018e-01
1.841803591899121018e-01
1.841803591899121018e-01
1.849445930454719222e-01
1.849445930454719222e-01
1.711883836453954866e-01
1.711883836453954866e-01
1.711883836453954866e-01
1.730989682842949962e-01
1.730989682842949962e-01
1.757737867787542985e-01
1.757737867787542985e-01
1.757737867787542985e-01
1.860909438288116113e-01
1.860909438288116113e-01
1.853267099732518186e-01
1.853267099732518186e-01
1.612533435231180701e-01
1.612533435231180701e-01
1.612533435231180701e-01
1.646923958731371929e-01
1.646923958731371929e-01
1.692777990064959770e-01
1.692777990064959770e-01
1.692777990064959770e-01
1.837982422621322054e-01
1.837982422621322054e-01
1.696599159342759011e-01
1.696599159342759011e-01
1.696599159342759011e-01
1.578142911730989750e-01
1.578142911730989750e-01
1.650745128009170892e-01
1.650745128009170892e-01
1.650745128009170892e-01
1.574321742453190787e-01
1.574321742453190787e-01
1.807413068398930067e-01
1.807413068398930067e-01
1.807413068398930067e-01
1.478792510508215585e-01
1.478792510508215585e-01
1.715705005731753829e-01
1.715705005731753829e-01
1.715705005731753829e-01
1.811234237676729031e-01
1.811234237676729031e-01
1.509361864730607572e-01
