2.510508215513947428e-01
2.510508215513947428e-01
2.453190676346962140e-01
2.453190676346962140e-01
2.453190676346962140e-01
2.422621322124570153e-01
2.422621322124570153e-01
2.506687046236148464e-01
2.506687046236148464e-01
2.506687046236148464e-01
2.338555598012991843e-01
2.338555598012991843e-01
2.384409629346579962e-01
2.384409629346579962e-01
2.384409629346579962e-01
2.311807413068398820e-01
2.311807413068398820e-01
2.399694306457776094e-01
2.399694306457776094e-01
2.399694306457776094e-01
2.239205196790217678e-01
2.239205196790217678e-01
2.265953381734810979e-01
2.265953381734810979e-01
2.265953381734810979e-01
2.174245319067634741e-01
2.174245319067634741e-01
2.243026366068016919e-01
2.243026366068016919e-01
2.243026366068016919e-01
2.300343905235001929e-01
2.300343905235001929e-01
2.109285441345051526e-01
2.109285441345051526e-01
2.109285441345051526e-01
2.174245319067634741e-01
2.174245319067634741e-01
2.212457011845624655e-01
2.212457011845624655e-01
2.212457011845624655e-01
2.086358425678257467e-01
2.086358425678257467e-01
2.036683225066870384e-01
2.036683225066870384e-01
2.036683225066870384e-01
2.155139472678639645e-01
2.155139472678639645e-01
2.025219717233473493e-01
2.025219717233473493e-01
2.025219717233473493e-01
2.124570118456247658e-01
2.124570118456247658e-01
1.937332823844096219e-01
1.937332823844096219e-01
1.937332823844096219e-01
2.082537256400458503e-01
2.082537256400458503e-01
2.059610240733664444e-01
2.059610240733664444e-01
2.059610240733664444e-01
2.021398547955674529e-01
2.021398547955674529e-01
2.006113870844478397e-01
2.006113870844478397e-01
2.006113870844478397e-01
1.994650363011081506e-01
1.994650363011081506e-01
1.971723347344287447e-01
1.971723347344287447e-01
1.971723347344287447e-01
1.987008024455483302e-01
1.987008024455483302e-01
1.929690485288498292e-01
1.929690485288498292e-01
1.929690485288498292e-01
1.952617500955292351e-01
1.952617500955292351e-01
1.910584638899503196e-01
1.910584638899503196e-01
1.910584638899503196e-01
1.891478792510508100e-01
1.891478792510508100e-01
1.792128391287733935e-01
1.792128391287733935e-01
1.792128391287733935e-01
1.753916698509744021e-01
1.753916698509744021e-01
1.811234237676729031e-01
1.811234237676729031e-01
1.811234237676729031e-01
1.880015284677111209e-01
1.880015284677111209e-01
1.753916698509744021e-01
1.753916698509744021e-01
1.753916698509744021e-01
1.685135651509361843e-01
1.685135651509361843e-01
1.704241497898356938e-01
1.704241497898356938e-01
1.704241497898356938e-01
1.631639281620175796e-01
1.631639281620175796e-01
1.704241497898356938e-01
1.704241497898356938e-01
1.704241497898356938e-01
1.616354604508979664e-01
1.616354604508979664e-01
1.730989682842949962e-01
1.730989682842949962e-01
1.730989682842949962e-01
1.574321742453190787e-01
1.574321742453190787e-01
1.547573557508597764e-01
1.547573557508597764e-01
1.547573557508597764e-01
1.681314482231562879e-01
1.681314482231562879e-01
1.666029805120366747e-01
1.666029805120366747e-01
1.666029805120366747e-01
1.547573557508597764e-01
1.547573557508597764e-01
1.620175773786778628e-01
1.620175773786778628e-01
1.620175773786778628e-01
1.581964081008788714e-01
1.581964081008788714e-01
1.513183034008406536e-01
1.513183034008406536e-01
1.513183034008406536e-01
1.555215896064195691e-01
1.555215896064195691e-01
1.608712265953381737e-01
1.608712265953381737e-01
1.608712265953381737e-01
1.471150171952617380e-01
1.471150171952617380e-01
1.478792510508215585e-01
1.478792510508215585e-01
1.478792510508215585e-01
1.513183034008406536e-01
1.513183034008406536e-01
1.478792510508215585e-01
1.478792510508215585e-01
1.478792510508215585e-01
1.432938479174627466e-01
1.432938479174627466e-01
1.593427588842185605e-01
1.593427588842185605e-01
1.593427588842185605e-01
1.536110049675200595e-01
1.536110049675200595e-01
1.482613679786014549e-01
1.482613679786014549e-01
1.482613679786014549e-01
1.452044325563622562e-01
1.452044325563622562e-01
1.432938479174627466e-01
1.432938479174627466e-01
1.432938479174627466e-01
1.421474971341230298e-01
1.421474971341230298e-01
1.413832632785632371e-01
1.413832632785632371e-01
1.413832632785632371e-01
1.410011463507833407e-01
1.410011463507833407e-01
1.452044325563622562e-01
1.452044325563622562e-01
1.452044325563622562e-01
1.348872755063049156e-01
1.348872755063049156e-01
1.501719526175009645e-01
1.501719526175009645e-01
1.501719526175009645e-01
1.325945739396255374e-01
1.325945739396255374e-01
1.329766908674054338e-01
1.329766908674054338e-01
1.329766908674054338e-01
1.306839893007260278e-01
1.306839893007260278e-01
1.329766908674054338e-01
1.329766908674054338e-01
1.329766908674054338e-01
1.490256018341612476e-01
1.490256018341612476e-01
1.322124570118456133e-01
1.322124570118456133e-01
1.322124570118456133e-01
1.402369124952235480e-01
1.402369124952235480e-01
1.417653802063431334e-01
1.417653802063431334e-01
1.417653802063431334e-01
1.215131830340084040e-01
1.215131830340084040e-01
1.253343523118074232e-01
1.253343523118074232e-01
1.253343523118074232e-01
1.260985861673672159e-01
1.260985861673672159e-01
1.406190294230034443e-01
1.406190294230034443e-01
1.406190294230034443e-01
1.283912877340466219e-01
1.283912877340466219e-01
1.272449369507069050e-01
1.272449369507069050e-01
1.325945739396255374e-01
1.325945739396255374e-01
1.325945739396255374e-01
1.371799770729843215e-01
1.371799770729843215e-01
1.337409247229652265e-01
1.337409247229652265e-01
1.337409247229652265e-01
1.234237676729079136e-01
1.234237676729079136e-01
1.352693924340848397e-01
1.352693924340848397e-01
1.352693924340848397e-01
1.345051585785250192e-01
1.345051585785250192e-01
1.264807030951471123e-01
1.264807030951471123e-01
1.264807030951471123e-01
1.245701184562476166e-01
1.245701184562476166e-01
1.291555215896064146e-01
1.291555215896064146e-01
1.291555215896064146e-01
1.234237676729079136e-01
1.234237676729079136e-01
1.306839893007260278e-01
1.306839893007260278e-01
1.306839893007260278e-01
1.215131830340084040e-01
1.215131830340084040e-01
1.306839893007260278e-01
1.306839893007260278e-01
1.306839893007260278e-01
1.153993121895299928e-01
1.153993121895299928e-01
1.215131830340084040e-01
1.215131830340084040e-01
1.215131830340084040e-01
1.287734046618265182e-01
1.287734046618265182e-01
1.287734046618265182e-01
1.287734046618265182e-01
1.287734046618265182e-01
1.146350783339702001e-01
1.146350783339702001e-01
1.226595338173481070e-01
1.226595338173481070e-01
1.226595338173481070e-01
1.245701184562476166e-01
1.245701184562476166e-01
1.069927397783721756e-01
1.069927397783721756e-01
1.069927397783721756e-01
1.123423767672907941e-01
1.123423767672907941e-01
1.092854413450515816e-01
1.092854413450515816e-01
1.092854413450515816e-01
1.111960259839510912e-01
1.111960259839510912e-01
1.100496752006113882e-01
1.100496752006113882e-01
1.100496752006113882e-01
1.062285059228123829e-01
1.062285059228123829e-01
1.138708444784103935e-01
1.138708444784103935e-01
1.138708444784103935e-01
1.115781429117309875e-01
1.115781429117309875e-01
1.199847153228888047e-01
1.199847153228888047e-01
1.199847153228888047e-01
1.081390905617118786e-01
1.081390905617118786e-01
1.138708444784103935e-01
1.138708444784103935e-01
1.138708444784103935e-01
1.012609858616736747e-01
1.012609858616736747e-01
1.153993121895299928e-01
1.153993121895299928e-01
1.153993121895299928e-01
1.196025983951089083e-01
1.196025983951089083e-01
1.077569736339319822e-01
1.077569736339319822e-01
1.077569736339319822e-01
1.096675582728314918e-01
1.096675582728314918e-01
1.153993121895299928e-01
1.153993121895299928e-01
1.153993121895299928e-01
1.180741306839892951e-01
1.180741306839892951e-01
1.050821551394726799e-01
1.050821551394726799e-01
1.050821551394726799e-01
1.111960259839510912e-01
1.111960259839510912e-01
1.035536874283530806e-01
1.035536874283530806e-01
1.035536874283530806e-01
1.089033244172716852e-01
1.089033244172716852e-01
1.039358043561329770e-01
1.039358043561329770e-01
1.039358043561329770e-01
9.973251815055407532e-02
9.973251815055407532e-02
1.161635460450897994e-01
1.161635460450897994e-01
1.161635460450897994e-01
1.111960259839510912e-01
1.111960259839510912e-01
1.024073366450133776e-01
1.024073366450133776e-01
1.024073366450133776e-01
1.066106228505922793e-01
1.066106228505922793e-01
1.123423767672907941e-01
1.123423767672907941e-01
1.123423767672907941e-01
1.134887275506304971e-01
1.134887275506304971e-01
9.743981658387466938e-02
9.743981658387466938e-02
9.743981658387466938e-02
9.629346580053496640e-02
9.629346580053496640e-02
1.092854413450515816e-01
1.092854413450515816e-01
1.092854413450515816e-01
1.092854413450515816e-01
1.092854413450515816e-01
1.020252197172334674e-01
1.020252197172334674e-01
1.020252197172334674e-01
9.667558272831486277e-02
9.667558272831486277e-02
1.024073366450133776e-01
1.024073366450133776e-01
1.024073366450133776e-01
1.035536874283530806e-01
1.035536874283530806e-01
1.054642720672525763e-01
1.054642720672525763e-01
1.054642720672525763e-01
9.973251815055407532e-02
9.973251815055407532e-02
9.438288116163545682e-02
9.438288116163545682e-02
9.438288116163545682e-02
1.108139090561711948e-01
1.108139090561711948e-01
1.008788689338937783e-01
1.008788689338937783e-01
1.008788689338937783e-01
9.170806266717615451e-02
9.170806266717615451e-02
1.031715705005731704e-01
1.031715705005731704e-01
1.031715705005731704e-01
9.361864730607566409e-02
9.361864730607566409e-02
9.209017959495605088e-02
9.209017959495605088e-02
9.209017959495605088e-02
8.826901031715704560e-02
8.826901031715704560e-02
9.820405043943446211e-02
9.820405043943446211e-02
9.820405043943446211e-02
1.001146350783339717e-01
1.001146350783339717e-01
1.004967520061138680e-01
1.004967520061138680e-01
1.004967520061138680e-01
9.973251815055407532e-02
9.973251815055407532e-02
9.782193351165456574e-02
9.782193351165456574e-02
9.782193351165456574e-02
9.247229652273596112e-02
9.247229652273596112e-02
8.712265953381734263e-02
8.712265953381734263e-02
8.712265953381734263e-02
8.674054260603744626e-02
8.674054260603744626e-02
9.820405043943446211e-02
9.820405043943446211e-02
9.820405043943446211e-02
8.865112724493695584e-02
8.865112724493695584e-02
1.020252197172334674e-01
1.020252197172334674e-01
1.020252197172334674e-01
9.858616736721437235e-02
9.858616736721437235e-02
1.039358043561329770e-01
1.039358043561329770e-01
8.712265953381734263e-02
8.712265953381734263e-02
8.712265953381734263e-02
8.865112724493695584e-02
8.865112724493695584e-02
9.094382881161634791e-02
9.094382881161634791e-02
9.094382881161634791e-02
8.406572411157814395e-02
8.406572411157814395e-02
9.323653037829575385e-02
9.323653037829575385e-02
9.323653037829575385e-02
8.674054260603744626e-02
8.674054260603744626e-02
9.935040122277416508e-02
9.935040122277416508e-02
9.935040122277416508e-02
9.896828429499426871e-02
9.896828429499426871e-02
8.406572411157814395e-02
8.406572411157814395e-02
8.406572411157814395e-02
9.896828429499426871e-02
9.896828429499426871e-02
9.743981658387466938e-02
9.743981658387466938e-02
9.743981658387466938e-02
1.024073366450133776e-01
1.024073366450133776e-01
8.521207489491784692e-02
8.521207489491784692e-02
8.521207489491784692e-02
9.629346580053496640e-02
9.629346580053496640e-02
8.330149025601833734e-02
8.330149025601833734e-02
8.330149025601833734e-02
1.016431027894535710e-01
1.016431027894535710e-01
1.035536874283530806e-01
1.035536874283530806e-01
1.035536874283530806e-01
1.024073366450133776e-01
1.024073366450133776e-01
9.132594573939625815e-02
9.132594573939625815e-02
9.132594573939625815e-02
9.056171188383645154e-02
9.056171188383645154e-02
1.024073366450133776e-01
1.024073366450133776e-01
1.024073366450133776e-01
9.820405043943446211e-02
9.820405043943446211e-02
8.444784103935804032e-02
8.444784103935804032e-02
8.444784103935804032e-02
1.058463889950324865e-01
1.058463889950324865e-01
9.591134887275505616e-02
9.591134887275505616e-02
9.591134887275505616e-02
1.039358043561329770e-01
1.039358043561329770e-01
8.865112724493695584e-02
8.865112724493695584e-02
8.865112724493695584e-02
9.705769965609475913e-02
9.705769965609475913e-02
9.476499808941536707e-02
9.476499808941536707e-02
9.476499808941536707e-02
9.858616736721437235e-02
9.858616736721437235e-02
8.712265953381734263e-02
8.712265953381734263e-02
8.712265953381734263e-02
9.935040122277416508e-02
9.935040122277416508e-02
8.291937332823844098e-02
8.291937332823844098e-02
8.291937332823844098e-02
8.368360718379824759e-02
8.368360718379824759e-02
1.001146350783339717e-01
1.001146350783339717e-01
1.001146350783339717e-01
1.058463889950324865e-01
1.058463889950324865e-01
9.973251815055407532e-02
9.973251815055407532e-02
9.973251815055407532e-02
9.514711501719526343e-02
9.514711501719526343e-02
1.043179212839128733e-01
1.043179212839128733e-01
1.043179212839128733e-01
1.012609858616736747e-01
1.012609858616736747e-01
8.712265953381734263e-02
8.712265953381734263e-02
8.712265953381734263e-02
1.004967520061138680e-01
1.004967520061138680e-01
1.043179212839128733e-01
1.043179212839128733e-01
1.043179212839128733e-01
9.438288116163545682e-02
9.438288116163545682e-02
9.935040122277416508e-02
9.935040122277416508e-02
9.935040122277416508e-02
9.743981658387466938e-02
9.743981658387466938e-02
8.750477646159725287e-02
8.750477646159725287e-02
8.750477646159725287e-02
1.024073366450133776e-01
1.024073366450133776e-01
8.597630875047763965e-02
8.597630875047763965e-02
8.597630875047763965e-02
9.705769965609475913e-02
9.705769965609475913e-02
8.177302254489873801e-02
8.177302254489873801e-02
8.177302254489873801e-02
1.016431027894535710e-01
1.016431027894535710e-01
8.521207489491784692e-02
8.521207489491784692e-02
8.521207489491784692e-02
8.903324417271685220e-02
8.903324417271685220e-02
1.031715705005731704e-01
1.031715705005731704e-01
1.031715705005731704e-01
9.896828429499426871e-02
9.896828429499426871e-02
1.001146350783339717e-01
1.001146350783339717e-01
1.001146350783339717e-01
9.017959495605655518e-02
9.017959495605655518e-02
9.361864730607566409e-02
9.361864730607566409e-02
9.361864730607566409e-02
9.056171188383645154e-02
9.056171188383645154e-02
9.476499808941536707e-02
9.476499808941536707e-02
9.476499808941536707e-02
8.406572411157814395e-02
8.406572411157814395e-02
8.253725640045854461e-02
8.253725640045854461e-02
8.253725640045854461e-02
8.903324417271685220e-02
8.903324417271685220e-02
9.782193351165456574e-02
9.782193351165456574e-02
9.782193351165456574e-02
9.552923194497515980e-02
9.552923194497515980e-02
1.012609858616736747e-01
1.012609858616736747e-01
1.012609858616736747e-01
8.139090561711884164e-02
8.139090561711884164e-02
8.903324417271685220e-02
8.903324417271685220e-02
8.903324417271685220e-02
8.826901031715704560e-02
8.826901031715704560e-02
8.100878868933893140e-02
8.100878868933893140e-02
8.100878868933893140e-02
1.031715705005731704e-01
1.031715705005731704e-01
8.597630875047763965e-02
8.597630875047763965e-02
8.597630875047763965e-02
9.170806266717615451e-02
9.170806266717615451e-02
8.597630875047763965e-02
8.597630875047763965e-02
8.597630875047763965e-02
1.024073366450133776e-01
1.024073366450133776e-01
9.514711501719526343e-02
9.514711501719526343e-02
9.514711501719526343e-02
9.743981658387466938e-02
9.743981658387466938e-02
9.743981658387466938e-02
9.743981658387466938e-02
9.743981658387466938e-02
1.180741306839892951e-01
1.180741306839892951e-01
1.161635460450897994e-01
1.161635460450897994e-01
1.180741306839892951e-01
1.180741306839892951e-01
1.180741306839892951e-01
1.264807030951471123e-01
1.264807030951471123e-01
1.341230416507451229e-01
1.341230416507451229e-01
1.341230416507451229e-01
1.410011463507833407e-01
1.410011463507833407e-01
1.459686664119220489e-01
1.459686664119220489e-01
1.459686664119220489e-01
1.696599159342759011e-01
1.696599159342759011e-01
1.639281620175773724e-01
1.639281620175773724e-01
1.639281620175773724e-01
1.784486052732136008e-01
1.784486052732136008e-01
1.803591899121131104e-01
1.803591899121131104e-01
1.803591899121131104e-01
2.040504394344669348e-01
2.040504394344669348e-01
2.109285441345051526e-01
2.109285441345051526e-01
2.109285441345051526e-01
2.273595720290408906e-01
2.273595720290408906e-01
2.350019105846389011e-01
2.350019105846389011e-01
2.350019105846389011e-01
2.499044707680550259e-01
2.499044707680550259e-01
2.487581199847153091e-01
2.487581199847153091e-01
2.487581199847153091e-01
2.709209017959495758e-01
2.709209017959495758e-01
2.831486434849063705e-01
2.831486434849063705e-01
2.831486434849063705e-01
2.827665265571264741e-01
2.827665265571264741e-01
2.980512036683224952e-01
2.980512036683224952e-01
2.980512036683224952e-01
3.007260221627818253e-01
3.007260221627818253e-01
3.194497516239969692e-01
3.194497516239969692e-01
3.194497516239969692e-01
3.121895299961788273e-01
3.121895299961788273e-01
3.240351547573557256e-01
3.240351547573557256e-01
3.240351547573557256e-01
3.335880779518532457e-01
3.335880779518532457e-01
3.377913641574321613e-01
3.377913641574321613e-01
3.377913641574321613e-01
3.446694688574704069e-01
3.446694688574704069e-01
3.511654566297287006e-01
3.511654566297287006e-01
3.511654566297287006e-01
3.595720290408865316e-01
3.595720290408865316e-01
3.607183798242262207e-01
3.607183798242262207e-01
3.607183798242262207e-01
3.679786014520443072e-01
3.679786014520443072e-01
3.840275124188001765e-01
3.840275124188001765e-01
3.840275124188001765e-01
3.958731371799770749e-01
3.958731371799770749e-01
3.924340848299579521e-01
3.924340848299579521e-01
3.924340848299579521e-01
3.863202139854795547e-01
3.863202139854795547e-01
4.012227741688956795e-01
4.012227741688956795e-01
4.012227741688956795e-01
4.016048910966755758e-01
4.016048910966755758e-01
4.130683989300725778e-01
4.130683989300725778e-01
4.130683989300725778e-01
4.035154757355751132e-01
4.035154757355751132e-01
4.207107374856706161e-01
4.207107374856706161e-01
4.207107374856706161e-01
4.115399312189529923e-01
4.115399312189529923e-01
4.165074512800917006e-01
4.165074512800917006e-01
4.165074512800917006e-01
4.203286205578907198e-01
4.203286205578907198e-01
4.180359189912112861e-01
4.180359189912112861e-01
4.180359189912112861e-01
4.249140236912495316e-01
4.249140236912495316e-01
4.279709591134887026e-01
4.279709591134887026e-01
4.279709591134887026e-01
4.394344669468857600e-01
4.394344669468857600e-01
4.279709591134887026e-01
4.279709591134887026e-01
4.279709591134887026e-01
4.401987008024455528e-01
4.401987008024455528e-01
4.409629346580053455e-01
4.409629346580053455e-01
4.409629346580053455e-01
4.367596484524264300e-01
4.367596484524264300e-01
4.371417653802063263e-01
4.371417653802063263e-01
4.371417653802063263e-01
4.421092854413450346e-01
4.421092854413450346e-01
4.512800917080626584e-01
4.512800917080626584e-01
4.512800917080626584e-01
4.417271685135651382e-01
4.417271685135651382e-01
4.390523500191058637e-01
4.390523500191058637e-01
4.390523500191058637e-01
4.363775315246465336e-01
4.363775315246465336e-01
4.398165838746656564e-01
4.398165838746656564e-01
4.398165838746656564e-01
4.428735192969048273e-01
4.428735192969048273e-01
4.463125716469239501e-01
4.463125716469239501e-01
4.463125716469239501e-01
4.558654948414214703e-01
4.558654948414214703e-01
4.539549102025219884e-01
4.539549102025219884e-01
4.539549102025219884e-01
4.474589224302636392e-01
4.474589224302636392e-01
4.455483377913641574e-01
4.455483377913641574e-01
4.455483377913641574e-01
4.551012609858616775e-01
4.551012609858616775e-01
4.516622086358425547e-01
4.516622086358425547e-01
4.516622086358425547e-01
4.466946885747038465e-01
4.466946885747038465e-01
4.558654948414214703e-01
4.558654948414214703e-01
4.558654948414214703e-01
4.512800917080626584e-01
4.512800917080626584e-01
4.570118456247611594e-01
4.570118456247611594e-01
4.570118456247611594e-01
4.570118456247611594e-01
4.570118456247611594e-01
4.573939625525410557e-01
4.573939625525410557e-01
4.573939625525410557e-01
4.635078333970195086e-01
4.635078333970195086e-01
4.677111196025983686e-01
4.677111196025983686e-01
4.677111196025983686e-01
4.711501719526174914e-01
4.711501719526174914e-01
4.658005349636988868e-01
4.658005349636988868e-01
4.658005349636988868e-01
4.581581964081009040e-01
4.581581964081009040e-01
4.596866641192204894e-01
4.596866641192204894e-01
4.596866641192204894e-01
4.593045471914405931e-01
4.593045471914405931e-01
4.600687810470003858e-01
4.600687810470003858e-01
4.600687810470003858e-01
4.577760794803209521e-01
4.577760794803209521e-01
4.638899503247994049e-01
4.638899503247994049e-01
4.638899503247994049e-01
4.726786396637370768e-01
4.726786396637370768e-01
4.635078333970195086e-01
4.635078333970195086e-01
4.673290026748184722e-01
4.673290026748184722e-01
4.673290026748184722e-01
4.627435995414596603e-01
4.627435995414596603e-01
4.680932365303783205e-01
4.680932365303783205e-01
4.680932365303783205e-01
4.684753534581582168e-01
4.684753534581582168e-01
4.677111196025983686e-01
4.677111196025983686e-01
4.677111196025983686e-01
4.577760794803209521e-01
4.577760794803209521e-01
4.554833779136415739e-01
4.554833779136415739e-01
4.554833779136415739e-01
4.593045471914405931e-01
4.593045471914405931e-01
4.665647688192586795e-01
4.665647688192586795e-01
4.665647688192586795e-01
4.604508979747802822e-01
4.604508979747802822e-01
4.562476117692013666e-01
4.562476117692013666e-01
4.562476117692013666e-01
4.524264424914023475e-01
4.524264424914023475e-01
4.516622086358425547e-01
4.516622086358425547e-01
4.516622086358425547e-01
4.627435995414596603e-01
4.627435995414596603e-01
4.539549102025219884e-01
4.539549102025219884e-01
4.539549102025219884e-01
4.516622086358425547e-01
4.516622086358425547e-01
4.489873901413832802e-01
4.489873901413832802e-01
4.489873901413832802e-01
4.478410393580435356e-01
4.478410393580435356e-01
4.352311807413068445e-01
4.352311807413068445e-01
4.352311807413068445e-01
4.390523500191058637e-01
4.390523500191058637e-01
4.344669468857470518e-01
4.344669468857470518e-01
4.344669468857470518e-01
4.241497898356897389e-01
4.241497898356897389e-01
4.203286205578907198e-01
4.203286205578907198e-01
4.203286205578907198e-01
4.237676729079098426e-01
4.237676729079098426e-01
4.126862820022926814e-01
4.126862820022926814e-01
4.126862820022926814e-01
4.115399312189529923e-01
4.115399312189529923e-01
3.951089033244172821e-01
3.951089033244172821e-01
3.951089033244172821e-01
4.038975926633550095e-01
4.038975926633550095e-01
3.947267863966373858e-01
3.947267863966373858e-01
3.947267863966373858e-01
3.931983186855177448e-01
3.931983186855177448e-01
3.870844478410393474e-01
3.870844478410393474e-01
3.870844478410393474e-01
3.824990447076805355e-01
3.824990447076805355e-01
3.786778754298815164e-01
3.786778754298815164e-01
3.786778754298815164e-01
3.740924722965227600e-01
3.740924722965227600e-01
3.641574321742453435e-01
3.641574321742453435e-01
3.641574321742453435e-01
3.691249522353840518e-01
3.691249522353840518e-01
3.626289644631257025e-01
3.626289644631257025e-01
3.626289644631257025e-01
3.481085212074894741e-01
3.481085212074894741e-01
3.469621704241497850e-01
3.469621704241497850e-01
3.469621704241497850e-01
3.377913641574321613e-01
3.377913641574321613e-01
3.557508597630875125e-01
3.557508597630875125e-01
3.557508597630875125e-01
3.442873519296905105e-01
3.442873519296905105e-01
3.316774933129537639e-01
3.316774933129537639e-01
3.316774933129537639e-01
3.412304165074512841e-01
3.412304165074512841e-01
3.293847917462743857e-01
3.293847917462743857e-01
3.293847917462743857e-01
3.225066870462361401e-01
3.225066870462361401e-01
3.309132594573939712e-01
3.309132594573939712e-01
3.309132594573939712e-01
3.290026748184944339e-01
3.290026748184944339e-01
3.263278563240351593e-01
3.263278563240351593e-01
3.263278563240351593e-01
3.198318685517768656e-01
3.198318685517768656e-01
3.152464654184180537e-01
3.152464654184180537e-01
3.152464654184180537e-01
3.259457393962552629e-01
3.259457393962552629e-01
3.091325945739396008e-01
3.091325945739396008e-01
3.091325945739396008e-01
3.175391669850974319e-01
3.175391669850974319e-01
3.102789453572793454e-01
3.102789453572793454e-01
3.102789453572793454e-01
3.114252961406190345e-01
3.114252961406190345e-01
3.148643484906381573e-01
3.148643484906381573e-01
3.148643484906381573e-01
2.991975544516621843e-01
2.991975544516621843e-01
2.942300343905234761e-01
2.942300343905234761e-01
2.942300343905234761e-01
3.091325945739396008e-01
3.091325945739396008e-01
3.011081390905617217e-01
3.011081390905617217e-01
3.011081390905617217e-01
2.934658005349636833e-01
2.934658005349636833e-01
3.056935422239205336e-01
3.056935422239205336e-01
3.056935422239205336e-01
2.980512036683224952e-01
2.980512036683224952e-01
2.965227359572029098e-01
2.965227359572029098e-01
2.965227359572029098e-01
2.995796713794421362e-01
2.995796713794421362e-01
2.957585021016431170e-01
2.957585021016431170e-01
2.957585021016431170e-01
2.808559419182269923e-01
2.808559419182269923e-01
2.816201757737867850e-01
2.816201757737867850e-01
2.816201757737867850e-01
2.881161635460450787e-01
2.881161635460450787e-01
2.884982804738249751e-01
2.884982804738249751e-01
2.884982804738249751e-01
2.724493695070691612e-01
2.724493695070691612e-01
2.827665265571264741e-01
2.827665265571264741e-01
2.827665265571264741e-01
2.713030187237294721e-01
2.713030187237294721e-01
2.774168895682078695e-01
2.774168895682078695e-01
2.774168895682078695e-01
2.674818494459304530e-01
2.674818494459304530e-01
2.686282002292701421e-01
2.686282002292701421e-01
2.686282002292701421e-01
2.606037447458922629e-01
2.606037447458922629e-01
2.701566679403897830e-01
2.701566679403897830e-01
2.701566679403897830e-01
2.625143293847917447e-01
2.625143293847917447e-01
2.583110431792128292e-01
2.583110431792128292e-01
2.533435231180741209e-01
2.533435231180741209e-01
2.533435231180741209e-01
2.617500955292319520e-01
2.617500955292319520e-01
2.564004585403133474e-01
2.564004585403133474e-01
2.564004585403133474e-01
2.499044707680550259e-01
2.499044707680550259e-01
2.632785632403515375e-01
2.632785632403515375e-01
2.632785632403515375e-01
2.564004585403133474e-01
2.564004585403133474e-01
2.407336645013374021e-01
2.407336645013374021e-01
2.407336645013374021e-01
2.537256400458540173e-01
2.537256400458540173e-01
2.464654184180359309e-01
2.464654184180359309e-01
2.464654184180359309e-01
2.384409629346579962e-01
2.384409629346579962e-01
2.479938861291555163e-01
2.479938861291555163e-01
2.479938861291555163e-01
2.411157814291172985e-01
2.411157814291172985e-01
2.414978983568972226e-01
2.414978983568972226e-01
2.414978983568972226e-01
2.342376767290791084e-01
2.342376767290791084e-01
2.361482613679785902e-01
2.361482613679785902e-01
2.361482613679785902e-01
2.357661444401986939e-01
2.357661444401986939e-01
2.277416889568207869e-01
2.277416889568207869e-01
2.277416889568207869e-01
2.346197936568590048e-01
2.346197936568590048e-01
2.285059228123805797e-01
2.285059228123805797e-01
2.285059228123805797e-01
2.124570118456247658e-01
2.124570118456247658e-01
2.208635842567825691e-01
2.208635842567825691e-01
2.208635842567825691e-01
2.254489873901413810e-01
2.254489873901413810e-01
2.166602980512036813e-01
2.166602980512036813e-01
2.166602980512036813e-01
2.185708826901031632e-01
2.185708826901031632e-01
2.109285441345051526e-01
2.109285441345051526e-01
2.109285441345051526e-01
2.105464272067252562e-01
2.105464272067252562e-01
2.227741688956820787e-01
2.227741688956820787e-01
2.227741688956820787e-01
1.994650363011081506e-01
1.994650363011081506e-01
2.151318303400840681e-01
2.151318303400840681e-01
2.151318303400840681e-01
2.101643102789453599e-01
2.101643102789453599e-01
1.941153993121895183e-01
1.941153993121895183e-01
1.941153993121895183e-01
1.941153993121895183e-01
1.941153993121895183e-01
1.883836453954910173e-01
1.883836453954910173e-01
1.883836453954910173e-01
1.868551776843714041e-01
1.868551776843714041e-01
1.845624761176920259e-01
1.845624761176920259e-01
1.845624761176920259e-01
2.025219717233473493e-01
2.025219717233473493e-01
1.902942300343905269e-01
1.902942300343905269e-01
1.902942300343905269e-01
1.788307222009934971e-01
1.788307222009934971e-01
1.948796331677493388e-01
1.948796331677493388e-01
1.948796331677493388e-01
1.765380206343140912e-01
1.765380206343140912e-01
1.948796331677493388e-01
1.948796331677493388e-01
1.948796331677493388e-01
1.738632021398547889e-01
1.738632021398547889e-01
1.776843714176538080e-01
1.776843714176538080e-01
1.776843714176538080e-01
1.830340084065724127e-01
1.830340084065724127e-01
1.891478792510508100e-01
1.891478792510508100e-01
1.891478792510508100e-01
1.776843714176538080e-01
1.776843714176538080e-01
1.727168513565150998e-01
1.727168513565150998e-01
1.727168513565150998e-01
1.738632021398547889e-01
1.738632021398547889e-01
1.795949560565533176e-01
1.795949560565533176e-01
1.795949560565533176e-01
1.788307222009934971e-01
1.788307222009934971e-01
1.715705005731753829e-01
1.715705005731753829e-01
1.715705005731753829e-01
1.650745128009170892e-01
1.650745128009170892e-01
1.685135651509361843e-01
1.685135651509361843e-01
1.685135651509361843e-01
1.704241497898356938e-01
1.704241497898356938e-01
1.601069927397783810e-01
1.601069927397783810e-01
1.601069927397783810e-01
1.639281620175773724e-01
1.639281620175773724e-01
1.654566297286969856e-01
1.654566297286969856e-01
1.654566297286969856e-01
1.666029805120366747e-01
1.666029805120366747e-01
1.501719526175009645e-01
1.501719526175009645e-01
1.501719526175009645e-01
1.654566297286969856e-01
1.654566297286969856e-01
1.513183034008406536e-01
1.513183034008406536e-01
1.513183034008406536e-01
1.593427588842185605e-01
1.593427588842185605e-01
1.494077187619411440e-01
1.494077187619411440e-01
1.494077187619411440e-01
1.463507833397019453e-01
1.463507833397019453e-01
1.555215896064195691e-01
1.555215896064195691e-01
1.555215896064195691e-01
1.551394726786396727e-01
1.551394726786396727e-01
1.467329002674818417e-01
1.467329002674818417e-01
1.467329002674818417e-01
1.578142911730989750e-01
1.578142911730989750e-01
1.574321742453190787e-01
1.574321742453190787e-01
1.574321742453190787e-01
1.517004203286205499e-01
1.517004203286205499e-01
1.474971341230416622e-01
1.474971341230416622e-01
1.474971341230416622e-01
1.398547955674436516e-01
1.398547955674436516e-01
1.402369124952235480e-01
1.402369124952235480e-01
1.402369124952235480e-01
1.566679403897592582e-01
1.566679403897592582e-01
1.421474971341230298e-01
1.421474971341230298e-01
1.421474971341230298e-01
1.505540695452808608e-01
1.505540695452808608e-01
1.345051585785250192e-01
1.345051585785250192e-01
1.345051585785250192e-01
1.356515093618647361e-01
1.356515093618647361e-01
1.543752388230798522e-01
1.543752388230798522e-01
1.543752388230798522e-01
1.432938479174627466e-01
1.432938479174627466e-01
1.440580817730225394e-01
1.440580817730225394e-01
1.322124570118456133e-01
1.322124570118456133e-01
1.322124570118456133e-01
1.432938479174627466e-01
1.432938479174627466e-01
1.440580817730225394e-01
1.440580817730225394e-01
1.440580817730225394e-01
1.471150171952617380e-01
1.471150171952617380e-01
1.497898356897210681e-01
1.497898356897210681e-01
1.497898356897210681e-01
1.421474971341230298e-01
1.421474971341230298e-01
1.520825372564004463e-01
1.520825372564004463e-01
1.520825372564004463e-01
1.318303400840657169e-01
1.318303400840657169e-01
1.413832632785632371e-01
1.413832632785632371e-01
1.413832632785632371e-01
1.276270538784868291e-01
1.276270538784868291e-01
1.325945739396255374e-01
1.325945739396255374e-01
1.325945739396255374e-01
1.394726786396637275e-01
1.394726786396637275e-01
1.387084447841039347e-01
1.387084447841039347e-01
1.387084447841039347e-01
1.245701184562476166e-01
1.245701184562476166e-01
1.322124570118456133e-01
1.322124570118456133e-01
1.322124570118456133e-01
1.253343523118074232e-01
1.253343523118074232e-01
1.394726786396637275e-01
1.394726786396637275e-01
1.394726786396637275e-01
1.249522353840275130e-01
1.249522353840275130e-01
1.249522353840275130e-01
1.249522353840275130e-01
1.249522353840275130e-01
1.299197554451662073e-01
1.299197554451662073e-01
1.329766908674054338e-01
1.329766908674054338e-01
1.329766908674054338e-01
1.306839893007260278e-01
1.306839893007260278e-01
1.276270538784868291e-01
1.276270538784868291e-01
1.276270538784868291e-01
1.283912877340466219e-01
1.283912877340466219e-01
1.295376385173863110e-01
1.295376385173863110e-01
1.295376385173863110e-01
1.303018723729461315e-01
1.303018723729461315e-01
1.199847153228888047e-01
1.199847153228888047e-01
1.199847153228888047e-01
1.169277799006495921e-01
1.169277799006495921e-01
1.119602598395108839e-01
1.119602598395108839e-01
1.119602598395108839e-01
1.379442109285441420e-01
1.379442109285441420e-01
1.211310661062285077e-01
1.211310661062285077e-01
1.211310661062285077e-01
1.119602598395108839e-01
1.119602598395108839e-01
1.184562476117692054e-01
1.184562476117692054e-01
1.184562476117692054e-01
1.089033244172716852e-01
1.089033244172716852e-01
1.291555215896064146e-01
1.291555215896064146e-01
1.291555215896064146e-01
1.173098968284295024e-01
1.173098968284295024e-01
1.257164692395873196e-01
1.257164692395873196e-01
1.257164692395873196e-01
1.211310661062285077e-01
1.211310661062285077e-01
1.287734046618265182e-01
1.287734046618265182e-01
1.287734046618265182e-01
1.081390905617118786e-01
1.081390905617118786e-01
1.245701184562476166e-01
1.245701184562476166e-01
1.245701184562476166e-01
1.188383645395491017e-01
1.188383645395491017e-01
1.153993121895299928e-01
1.153993121895299928e-01
1.153993121895299928e-01
1.207489491784486113e-01
1.207489491784486113e-01
1.207489491784486113e-01
1.207489491784486113e-01
1.207489491784486113e-01
1.104317921283912846e-01
1.104317921283912846e-01
1.039358043561329770e-01
1.039358043561329770e-01
1.039358043561329770e-01
1.004967520061138680e-01
1.004967520061138680e-01
1.215131830340084040e-01
1.215131830340084040e-01
1.215131830340084040e-01
1.150171952617500964e-01
1.150171952617500964e-01
1.153993121895299928e-01
1.153993121895299928e-01
1.153993121895299928e-01
1.169277799006495921e-01
1.169277799006495921e-01
1.089033244172716852e-01
1.089033244172716852e-01
1.089033244172716852e-01
1.020252197172334674e-01
1.020252197172334674e-01
1.127244936950706905e-01
1.127244936950706905e-01
1.127244936950706905e-01
1.108139090561711948e-01
1.108139090561711948e-01
1.119602598395108839e-01
1.119602598395108839e-01
1.119602598395108839e-01
1.024073366450133776e-01
1.024073366450133776e-01
9.591134887275505616e-02
9.591134887275505616e-02
9.591134887275505616e-02
9.552923194497515980e-02
9.552923194497515980e-02
1.142529614061902898e-01
1.142529614061902898e-01
1.142529614061902898e-01
9.743981658387466938e-02
9.743981658387466938e-02
1.131066106228505869e-01
1.131066106228505869e-01
1.131066106228505869e-01
9.476499808941536707e-02
9.476499808941536707e-02
1.050821551394726799e-01
1.050821551394726799e-01
1.050821551394726799e-01
9.705769965609475913e-02
9.705769965609475913e-02
1.138708444784103935e-01
1.138708444784103935e-01
1.138708444784103935e-01
9.514711501719526343e-02
9.514711501719526343e-02
9.170806266717615451e-02
9.170806266717615451e-02
9.170806266717615451e-02
1.047000382116927836e-01
1.047000382116927836e-01
1.008788689338937783e-01
1.008788689338937783e-01
1.008788689338937783e-01
9.743981658387466938e-02
9.743981658387466938e-02
1.066106228505922793e-01
1.066106228505922793e-01
1.066106228505922793e-01
9.973251815055407532e-02
9.973251815055407532e-02
1.047000382116927836e-01
1.047000382116927836e-01
1.047000382116927836e-01
1.073748567061520859e-01
1.073748567061520859e-01
9.170806266717615451e-02
9.170806266717615451e-02
9.170806266717615451e-02
9.629346580053496640e-02
9.629346580053496640e-02
8.826901031715704560e-02
8.826901031715704560e-02
8.826901031715704560e-02
9.094382881161634791e-02
9.094382881161634791e-02
9.017959495605655518e-02
9.017959495605655518e-02
9.017959495605655518e-02
9.552923194497515980e-02
9.552923194497515980e-02
9.017959495605655518e-02
9.017959495605655518e-02
9.552923194497515980e-02
9.552923194497515980e-02
9.552923194497515980e-02
1.043179212839128733e-01
1.043179212839128733e-01
8.635842567825754990e-02
8.635842567825754990e-02
8.635842567825754990e-02
9.017959495605655518e-02
9.017959495605655518e-02
9.247229652273596112e-02
9.247229652273596112e-02
9.247229652273596112e-02
9.132594573939625815e-02
9.132594573939625815e-02
9.552923194497515980e-02
9.552923194497515980e-02
9.552923194497515980e-02
9.858616736721437235e-02
9.858616736721437235e-02
8.865112724493695584e-02
8.865112724493695584e-02
8.865112724493695584e-02
8.788689338937714923e-02
8.788689338937714923e-02
8.826901031715704560e-02
8.826901031715704560e-02
8.826901031715704560e-02
8.750477646159725287e-02
8.750477646159725287e-02
9.629346580053496640e-02
9.629346580053496640e-02
9.629346580053496640e-02
8.291937332823844098e-02
8.291937332823844098e-02
9.935040122277416508e-02
9.935040122277416508e-02
9.935040122277416508e-02
8.674054260603744626e-02
8.674054260603744626e-02
1.031715705005731704e-01
1.031715705005731704e-01
1.031715705005731704e-01
9.017959495605655518e-02
9.017959495605655518e-02
9.056171188383645154e-02
9.056171188383645154e-02
9.056171188383645154e-02
9.935040122277416508e-02
9.935040122277416508e-02
9.094382881161634791e-02
9.094382881161634791e-02
9.094382881161634791e-02
8.674054260603744626e-02
8.674054260603744626e-02
9.323653037829575385e-02
9.323653037829575385e-02
9.323653037829575385e-02
9.591134887275505616e-02
9.591134887275505616e-02
9.400076423385556046e-02
9.400076423385556046e-02
9.400076423385556046e-02
8.750477646159725287e-02
8.750477646159725287e-02
1.020252197172334674e-01
1.020252197172334674e-01
1.020252197172334674e-01
9.247229652273596112e-02
9.247229652273596112e-02
1.073748567061520859e-01
1.073748567061520859e-01
1.073748567061520859e-01
1.027894535727932740e-01
1.027894535727932740e-01
9.094382881161634791e-02
9.094382881161634791e-02
9.094382881161634791e-02
9.935040122277416508e-02
9.935040122277416508e-02
9.209017959495605088e-02
9.209017959495605088e-02
9.209017959495605088e-02
9.667558272831486277e-02
9.667558272831486277e-02
9.629346580053496640e-02
9.629346580053496640e-02
9.629346580053496640e-02
1.077569736339319822e-01
1.077569736339319822e-01
9.667558272831486277e-02
9.667558272831486277e-02
9.667558272831486277e-02
1.081390905617118786e-01
1.081390905617118786e-01
9.858616736721437235e-02
9.858616736721437235e-02
9.858616736721437235e-02
1.111960259839510912e-01
1.111960259839510912e-01
1.123423767672907941e-01
1.123423767672907941e-01
1.123423767672907941e-01
1.115781429117309875e-01
1.115781429117309875e-01
9.017959495605655518e-02
9.017959495605655518e-02
9.017959495605655518e-02
1.062285059228123829e-01
1.062285059228123829e-01
9.323653037829575385e-02
9.323653037829575385e-02
9.323653037829575385e-02
1.115781429117309875e-01
1.115781429117309875e-01
9.782193351165456574e-02
9.782193351165456574e-02
9.782193351165456574e-02
1.054642720672525763e-01
1.054642720672525763e-01
8.903324417271685220e-02
8.903324417271685220e-02
8.903324417271685220e-02
9.705769965609475913e-02
9.705769965609475913e-02
1.020252197172334674e-01
1.020252197172334674e-01
1.020252197172334674e-01
1.024073366450133776e-01
1.024073366450133776e-01
9.132594573939625815e-02
9.132594573939625815e-02
9.132594573939625815e-02
9.629346580053496640e-02
9.629346580053496640e-02
1.047000382116927836e-01
1.047000382116927836e-01
1.047000382116927836e-01
9.973251815055407532e-02
9.973251815055407532e-02
9.629346580053496640e-02
9.629346580053496640e-02
9.629346580053496640e-02
1.035536874283530806e-01
1.035536874283530806e-01
9.361864730607566409e-02
9.361864730607566409e-02
9.361864730607566409e-02
8.750477646159725287e-02
8.750477646159725287e-02
9.017959495605655518e-02
9.017959495605655518e-02
9.017959495605655518e-02
1.039358043561329770e-01
1.039358043561329770e-01
1.012609858616736747e-01
1.012609858616736747e-01
1.012609858616736747e-01
9.782193351165456574e-02
9.782193351165456574e-02
9.743981658387466938e-02
9.743981658387466938e-02
9.743981658387466938e-02
9.973251815055407532e-02
9.973251815055407532e-02
9.170806266717615451e-02
9.170806266717615451e-02
9.170806266717615451e-02
8.941536110049674857e-02
8.941536110049674857e-02
1.054642720672525763e-01
1.054642720672525763e-01
1.054642720672525763e-01
1.054642720672525763e-01
1.054642720672525763e-01
9.820405043943446211e-02
9.820405043943446211e-02
9.820405043943446211e-02
9.323653037829575385e-02
9.323653037829575385e-02
1.104317921283912846e-01
1.104317921283912846e-01
1.104317921283912846e-01
9.209017959495605088e-02
9.209017959495605088e-02
1.073748567061520859e-01
1.073748567061520859e-01
1.073748567061520859e-01
9.552923194497515980e-02
9.552923194497515980e-02
1.069927397783721756e-01
1.069927397783721756e-01
1.069927397783721756e-01
1.123423767672907941e-01
1.123423767672907941e-01
1.104317921283912846e-01
1.104317921283912846e-01
1.104317921283912846e-01
1.138708444784103935e-01
1.138708444784103935e-01
1.153993121895299928e-01
1.153993121895299928e-01
1.138708444784103935e-01
1.138708444784103935e-01
1.138708444784103935e-01
1.077569736339319822e-01
1.077569736339319822e-01
1.196025983951089083e-01
1.196025983951089083e-01
1.196025983951089083e-01
1.241880015284677063e-01
1.241880015284677063e-01
1.238058846006878100e-01
1.238058846006878100e-01
1.238058846006878100e-01
1.398547955674436516e-01
1.398547955674436516e-01
1.383263278563240384e-01
1.383263278563240384e-01
1.383263278563240384e-01
1.333588077951853301e-01
1.333588077951853301e-01
1.490256018341612476e-01
1.490256018341612476e-01
1.490256018341612476e-01
1.478792510508215585e-01
1.478792510508215585e-01
1.593427588842185605e-01
1.593427588842185605e-01
1.593427588842185605e-01
1.803591899121131104e-01
1.803591899121131104e-01
1.730989682842949962e-01
1.730989682842949962e-01
1.730989682842949962e-01
1.876194115399312246e-01
1.876194115399312246e-01
2.078716087122659539e-01
2.078716087122659539e-01
2.078716087122659539e-01
2.044325563622468589e-01
2.044325563622468589e-01
2.292701566679404002e-01
2.292701566679404002e-01
2.292701566679404002e-01
2.464654184180359309e-01
2.464654184180359309e-01
2.441727168513565249e-01
2.441727168513565249e-01
2.441727168513565249e-01
2.609858616736721593e-01
2.609858616736721593e-01
2.583110431792128292e-01
2.583110431792128292e-01
2.583110431792128292e-01
2.812380588460068886e-01
2.812380588460068886e-01
2.835307604126862668e-01
2.835307604126862668e-01
2.835307604126862668e-01
2.972869698127627025e-01
2.972869698127627025e-01
3.133358807795185164e-01
3.133358807795185164e-01
3.133358807795185164e-01
3.167749331295376392e-01
3.167749331295376392e-01
3.232709209017959329e-01
3.232709209017959329e-01
3.232709209017959329e-01
3.335880779518532457e-01
3.335880779518532457e-01
3.412304165074512841e-01
3.412304165074512841e-01
3.412304165074512841e-01
3.572793274742070979e-01
3.572793274742070979e-01
3.591899121131066352e-01
3.591899121131066352e-01
3.591899121131066352e-01
3.752388230798624491e-01
3.752388230798624491e-01
3.664501337409247217e-01
3.664501337409247217e-01
3.664501337409247217e-01
3.672143675964845144e-01
3.672143675964845144e-01
3.725640045854031190e-01
3.725640045854031190e-01
3.725640045854031190e-01
3.939625525410775930e-01
3.939625525410775930e-01
3.886129155521589329e-01
3.886129155521589329e-01
3.886129155521589329e-01
3.931983186855177448e-01
3.931983186855177448e-01
4.023691249522353686e-01
4.023691249522353686e-01
4.023691249522353686e-01
4.130683989300725778e-01
4.130683989300725778e-01
4.088651127244937178e-01
4.088651127244937178e-01
4.088651127244937178e-01
4.168895682078715970e-01
4.168895682078715970e-01
4.191822697745510307e-01
4.191822697745510307e-01
4.191822697745510307e-01
4.199465036301108234e-01
4.199465036301108234e-01
4.268246083301490135e-01
4.268246083301490135e-01
4.268246083301490135e-01
4.214749713412304089e-01
4.214749713412304089e-01
4.272067252579289098e-01
4.272067252579289098e-01
4.272067252579289098e-01
4.230034390523499943e-01
4.230034390523499943e-01
4.279709591134887026e-01
4.279709591134887026e-01
4.279709591134887026e-01
4.405808177302254491e-01
4.405808177302254491e-01
4.386702330913259673e-01
4.386702330913259673e-01
4.386702330913259673e-01
4.379059992357661191e-01
4.379059992357661191e-01
4.367596484524264300e-01
4.367596484524264300e-01
4.367596484524264300e-01
4.379059992357661191e-01
4.379059992357661191e-01
4.394344669468857600e-01
4.394344669468857600e-01
4.394344669468857600e-01
4.436377531524646756e-01
4.436377531524646756e-01
4.413450515857852419e-01
4.413450515857852419e-01
4.413450515857852419e-01
4.459304547191440538e-01
4.459304547191440538e-01
4.401987008024455528e-01
4.401987008024455528e-01
4.401987008024455528e-01
4.524264424914023475e-01
4.524264424914023475e-01
4.551012609858616775e-01
4.551012609858616775e-01
4.551012609858616775e-01
4.570118456247611594e-01
4.570118456247611594e-01
4.512800917080626584e-01
4.512800917080626584e-01
4.512800917080626584e-01
4.463125716469239501e-01
4.463125716469239501e-01
4.512800917080626584e-01
4.512800917080626584e-01
4.512800917080626584e-01
4.581581964081009040e-01
4.581581964081009040e-01
4.497516239969430729e-01
4.497516239969430729e-01
4.497516239969430729e-01
4.619793656858998676e-01
4.619793656858998676e-01
4.554833779136415739e-01
4.554833779136415739e-01
4.554833779136415739e-01
4.551012609858616775e-01
4.551012609858616775e-01
4.528085594191822438e-01
4.528085594191822438e-01
4.528085594191822438e-01
4.669468857470385759e-01
4.669468857470385759e-01
4.669468857470385759e-01
4.669468857470385759e-01
4.669468857470385759e-01
4.543370271303018848e-01
4.543370271303018848e-01
4.566297286969812630e-01
4.566297286969812630e-01
4.566297286969812630e-01
4.638899503247994049e-01
4.638899503247994049e-01
4.604508979747802822e-01
4.604508979747802822e-01
4.604508979747802822e-01
4.696217042414979059e-01
4.696217042414979059e-01
4.650363011081390940e-01
4.650363011081390940e-01
4.650363011081390940e-01
4.589224302636606967e-01
4.589224302636606967e-01
4.753534581581964069e-01
4.753534581581964069e-01
4.753534581581964069e-01
4.784103935804356333e-01
4.784103935804356333e-01
4.711501719526174914e-01
4.711501719526174914e-01
4.749713412304165105e-01
4.749713412304165105e-01
4.749713412304165105e-01
4.757355750859763033e-01
4.757355750859763033e-01
4.742071073748567178e-01
4.742071073748567178e-01
4.742071073748567178e-01
4.715322888803973878e-01
4.715322888803973878e-01
4.730607565915170287e-01
4.730607565915170287e-01
4.730607565915170287e-01
4.822315628582345970e-01
4.822315628582345970e-01
4.688574703859381132e-01
4.688574703859381132e-01
4.688574703859381132e-01
4.680932365303783205e-01
4.680932365303783205e-01
4.680932365303783205e-01
4.680932365303783205e-01
4.680932365303783205e-01
4.822315628582345970e-01
4.822315628582345970e-01
4.814673290026748043e-01
4.814673290026748043e-01
4.814673290026748043e-01
4.745892243026366142e-01
4.745892243026366142e-01
4.841421474971341343e-01
4.841421474971341343e-01
4.841421474971341343e-01
4.787925105082155297e-01
4.787925105082155297e-01
4.742071073748567178e-01
4.742071073748567178e-01
4.742071073748567178e-01
4.669468857470385759e-01
4.669468857470385759e-01
4.742071073748567178e-01
4.742071073748567178e-01
4.742071073748567178e-01
4.719144058081772841e-01
4.719144058081772841e-01
4.677111196025983686e-01
4.677111196025983686e-01
4.677111196025983686e-01
4.619793656858998676e-01
4.619793656858998676e-01
4.638899503247994049e-01
4.638899503247994049e-01
4.638899503247994049e-01
4.658005349636988868e-01
4.658005349636988868e-01
4.539549102025219884e-01
4.539549102025219884e-01
4.539549102025219884e-01
4.589224302636606967e-01
4.589224302636606967e-01
4.463125716469239501e-01
4.463125716469239501e-01
4.463125716469239501e-01
4.596866641192204894e-01
4.596866641192204894e-01
4.570118456247611594e-01
4.570118456247611594e-01
4.570118456247611594e-01
4.486052732136033838e-01
4.486052732136033838e-01
4.371417653802063263e-01
4.371417653802063263e-01
4.371417653802063263e-01
4.363775315246465336e-01
4.363775315246465336e-01
4.455483377913641574e-01
4.455483377913641574e-01
4.455483377913641574e-01
4.272067252579289098e-01
4.272067252579289098e-01
4.310278945357279290e-01
4.310278945357279290e-01
4.310278945357279290e-01
4.275888421857088062e-01
4.275888421857088062e-01
4.134505158578525297e-01
4.134505158578525297e-01
4.134505158578525297e-01
4.088651127244937178e-01
4.088651127244937178e-01
4.027512418800152649e-01
4.027512418800152649e-01
4.027512418800152649e-01
4.061902942300343877e-01
4.061902942300343877e-01
3.970194879633167639e-01
3.970194879633167639e-01
3.970194879633167639e-01
3.824990447076805355e-01
3.824990447076805355e-01
3.844096293465800729e-01
3.844096293465800729e-01
3.844096293465800729e-01
3.897592663354986775e-01
3.897592663354986775e-01
3.782957585021016200e-01
3.782957585021016200e-01
3.782957585021016200e-01
3.702713030187237409e-01
3.702713030187237409e-01
3.786778754298815164e-01
3.786778754298815164e-01
3.786778754298815164e-01
3.790599923576614683e-01
3.790599923576614683e-01
3.679786014520443072e-01
3.679786014520443072e-01
3.679786014520443072e-01
3.744745892243026564e-01
3.744745892243026564e-01
3.714176538020634299e-01
3.714176538020634299e-01
3.714176538020634299e-01
3.687428353076040999e-01
3.687428353076040999e-01
3.611004967520061171e-01
3.611004967520061171e-01
3.611004967520061171e-01
3.618647306075659098e-01
3.618647306075659098e-01
3.580435613297668906e-01
3.580435613297668906e-01
3.580435613297668906e-01
3.404661826518914913e-01
3.404661826518914913e-01
3.461979365685899923e-01
3.461979365685899923e-01
3.461979365685899923e-01
3.370271303018723685e-01
3.370271303018723685e-01
3.362628964463125758e-01
3.362628964463125758e-01
3.362628964463125758e-01
3.362628964463125758e-01
3.362628964463125758e-01
3.366450133740924722e-01
3.366450133740924722e-01
3.366450133740924722e-01
3.328238440962934530e-01
3.328238440962934530e-01
3.442873519296905105e-01
3.442873519296905105e-01
3.442873519296905105e-01
3.297669086740542821e-01
3.297669086740542821e-01
3.324417271685135566e-01
3.324417271685135566e-01
3.324417271685135566e-01
3.290026748184944339e-01
3.290026748184944339e-01
3.347344287351929903e-01
3.347344287351929903e-01
3.347344287351929903e-01
3.247993886129155738e-01
3.247993886129155738e-01
3.335880779518532457e-01
3.335880779518532457e-01
3.335880779518532457e-01
3.232709209017959329e-01
3.232709209017959329e-01
3.205961024073366583e-01
3.205961024073366583e-01
3.205961024073366583e-01
3.171570500573175355e-01
3.171570500573175355e-01
3.068398930072602226e-01
3.068398930072602226e-01
3.068398930072602226e-01
3.106610622850592418e-01
3.106610622850592418e-01
3.247993886129155738e-01
3.247993886129155738e-01
3.247993886129155738e-01
3.011081390905617217e-01
3.011081390905617217e-01
3.137179977072984127e-01
3.137179977072984127e-01
3.137179977072984127e-01
3.007260221627818253e-01
3.007260221627818253e-01
2.991975544516621843e-01
2.991975544516621843e-01
2.991975544516621843e-01
3.079862437905999117e-01
3.079862437905999117e-01
2.995796713794421362e-01
2.995796713794421362e-01
2.995796713794421362e-01
2.915552158960642015e-01
2.915552158960642015e-01
2.995796713794421362e-01
2.995796713794421362e-01
2.946121513183034279e-01
2.946121513183034279e-01
2.946121513183034279e-01
2.946121513183034279e-01
2.946121513183034279e-01
2.961406190294230134e-01
2.961406190294230134e-01
2.961406190294230134e-01
2.915552158960642015e-01
2.915552158960642015e-01
2.888803974016048715e-01
2.888803974016048715e-01
2.888803974016048715e-01
2.770347726404279731e-01
2.770347726404279731e-01
2.789453572793274549e-01
2.789453572793274549e-01
2.789453572793274549e-01
2.732136033626289540e-01
2.732136033626289540e-01
2.820022927015666814e-01
2.820022927015666814e-01
2.820022927015666814e-01
2.674818494459304530e-01
2.674818494459304530e-01
2.789453572793274549e-01
2.789453572793274549e-01
2.789453572793274549e-01
2.640427970959113302e-01
2.640427970959113302e-01
2.663354986625907639e-01
2.663354986625907639e-01
2.663354986625907639e-01
2.621322124570118484e-01
2.621322124570118484e-01
2.678639663737103493e-01
2.678639663737103493e-01
2.678639663737103493e-01
2.625143293847917447e-01
2.625143293847917447e-01
2.541077569736339137e-01
2.541077569736339137e-01
2.541077569736339137e-01
2.533435231180741209e-01
2.533435231180741209e-01
2.556362246847535546e-01
2.556362246847535546e-01
2.556362246847535546e-01
2.514329384791746391e-01
2.514329384791746391e-01
2.609858616736721593e-01
2.609858616736721593e-01
2.609858616736721593e-01
2.491402369124952332e-01
2.491402369124952332e-01
2.392051967902178167e-01
2.392051967902178167e-01
2.392051967902178167e-01
