5.968666411922047832e-01
5.968666411922047832e-01
5.811998471532289212e-01
5.811998471532289212e-01
5.766144440198700538e-01
5.766144440198700538e-01
5.766144440198700538e-01
5.735575085976308829e-01
5.735575085976308829e-01
5.471914405808177007e-01
5.471914405808177007e-01
5.513947267863966717e-01
5.513947267863966717e-01
5.513947267863966717e-01
5.330531142529614241e-01
5.330531142529614241e-01
5.277034772640427640e-01
5.277034772640427640e-01
5.277034772640427640e-01
5.464272067252579079e-01
5.464272067252579079e-01
5.154757355750859693e-01
5.154757355750859693e-01
5.154757355750859693e-01
5.307604126862820459e-01
5.307604126862820459e-01
5.120366832250669020e-01
5.120366832250669020e-01
5.120366832250669020e-01
5.173863202139854511e-01
5.173863202139854511e-01
4.849063813526939271e-01
4.849063813526939271e-01
4.849063813526939271e-01
5.013374092472296928e-01
5.013374092472296928e-01
4.631257164692396122e-01
4.631257164692396122e-01
4.631257164692396122e-01
4.711501719526174914e-01
4.711501719526174914e-01
4.780282766526557370e-01
4.780282766526557370e-01
4.780282766526557370e-01
4.516622086358425547e-01
4.516622086358425547e-01
4.310278945357279290e-01
4.310278945357279290e-01
4.310278945357279290e-01
4.421092854413450346e-01
4.421092854413450346e-01
4.333205961024073627e-01
4.333205961024073627e-01
4.333205961024073627e-01
4.325563622468475145e-01
4.325563622468475145e-01
4.207107374856706161e-01
4.207107374856706161e-01
4.207107374856706161e-01
3.947267863966373858e-01
3.947267863966373858e-01
4.172716851356514933e-01
4.172716851356514933e-01
4.172716851356514933e-01
4.069545280855941805e-01
4.069545280855941805e-01
4.058081773022544914e-01
4.058081773022544914e-01
4.058081773022544914e-01
3.805884600687810537e-01
3.805884600687810537e-01
3.836453954910202246e-01
3.836453954910202246e-01
3.836453954910202246e-01
3.565150936186473052e-01
3.565150936186473052e-01
3.717997707298433263e-01
3.717997707298433263e-01
3.717997707298433263e-01
3.519296904852884933e-01
3.519296904852884933e-01
3.504012227741689078e-01
3.504012227741689078e-01
3.504012227741689078e-01
3.488727550630492669e-01
3.488727550630492669e-01
3.683607183798242035e-01
3.683607183798242035e-01
3.683607183798242035e-01
3.362628964463125758e-01
3.362628964463125758e-01
3.565150936186473052e-01
3.565150936186473052e-01
3.565150936186473052e-01
3.316774933129537639e-01
3.316774933129537639e-01
3.568972105464272015e-01
3.568972105464272015e-01
3.568972105464272015e-01
3.255636224684753666e-01
3.255636224684753666e-01
3.225066870462361401e-01
3.225066870462361401e-01
3.225066870462361401e-01
3.332059610240733494e-01
3.332059610240733494e-01
3.160106992739778464e-01
3.160106992739778464e-01
3.160106992739778464e-01
3.408482995796713877e-01
3.408482995796713877e-01
3.244172716851356775e-01
3.244172716851356775e-01
3.244172716851356775e-01
3.160106992739778464e-01
3.160106992739778464e-01
3.377913641574321613e-01
3.377913641574321613e-01
3.377913641574321613e-01
3.114252961406190345e-01
3.114252961406190345e-01
3.026366068016813071e-01
3.026366068016813071e-01
3.026366068016813071e-01
3.060756591517004299e-01
3.060756591517004299e-01
2.984333205961023916e-01
2.984333205961023916e-01
2.984333205961023916e-01
2.965227359572029098e-01
2.965227359572029098e-01
3.186855177684371210e-01
3.186855177684371210e-01
3.186855177684371210e-01
3.133358807795185164e-01
3.133358807795185164e-01
2.961406190294230134e-01
2.961406190294230134e-01
2.961406190294230134e-01
2.858234619793657005e-01
2.858234619793657005e-01
3.003439052350019289e-01
3.003439052350019289e-01
3.003439052350019289e-01
2.827665265571264741e-01
2.827665265571264741e-01
3.083683607183798081e-01
3.083683607183798081e-01
3.083683607183798081e-01
2.781811234237676622e-01
2.781811234237676622e-01
2.751241880015284913e-01
2.751241880015284913e-01
2.751241880015284913e-01
2.716851356515093685e-01
2.716851356515093685e-01
2.808559419182269923e-01
2.808559419182269923e-01
2.808559419182269923e-01
2.697745510126098312e-01
2.697745510126098312e-01
2.735957202904088503e-01
2.735957202904088503e-01
2.735957202904088503e-01
2.888803974016048715e-01
2.888803974016048715e-01
2.709209017959495758e-01
2.709209017959495758e-01
2.709209017959495758e-01
2.571646923958731401e-01
2.571646923958731401e-01
2.766526557126480768e-01
2.766526557126480768e-01
2.766526557126480768e-01
2.739778372181887467e-01
2.739778372181887467e-01
2.602216278181123665e-01
2.602216278181123665e-01
2.602216278181123665e-01
2.510508215513947428e-01
2.510508215513947428e-01
2.697745510126098312e-01
2.697745510126098312e-01
2.697745510126098312e-01
2.457011845624761104e-01
2.457011845624761104e-01
2.357661444401986939e-01
2.357661444401986939e-01
2.357661444401986939e-01
2.315628582346198061e-01
2.315628582346198061e-01
2.529614061902942246e-01
2.529614061902942246e-01
2.529614061902942246e-01
2.369124952235384107e-01
2.369124952235384107e-01
2.277416889568207869e-01
2.277416889568207869e-01
2.277416889568207869e-01
2.197172334734428800e-01
2.197172334734428800e-01
2.380588460068780998e-01
2.380588460068780998e-01
2.380588460068780998e-01
2.376767290790982035e-01
2.376767290790982035e-01
2.162781811234237572e-01
2.162781811234237572e-01
2.162781811234237572e-01
2.220099350401222860e-01
2.220099350401222860e-01
2.006113870844478397e-01
2.006113870844478397e-01
2.006113870844478397e-01
2.204814673290026728e-01
2.204814673290026728e-01
1.979365685899885374e-01
1.979365685899885374e-01
2.200993504012227764e-01
2.200993504012227764e-01
2.200993504012227764e-01
2.185708826901031632e-01
2.185708826901031632e-01
1.880015284677111209e-01
1.880015284677111209e-01
1.880015284677111209e-01
2.094000764233855671e-01
2.094000764233855671e-01
1.780664883454337044e-01
1.780664883454337044e-01
1.780664883454337044e-01
1.799770729843332140e-01
1.799770729843332140e-01
1.773022544898739117e-01
1.773022544898739117e-01
1.773022544898739117e-01
1.765380206343140912e-01
1.765380206343140912e-01
1.807413068398930067e-01
1.807413068398930067e-01
1.807413068398930067e-01
1.853267099732518186e-01
1.853267099732518186e-01
1.681314482231562879e-01
1.681314482231562879e-01
1.681314482231562879e-01
1.669850974398165711e-01
1.669850974398165711e-01
1.654566297286969856e-01
1.654566297286969856e-01
1.654566297286969856e-01
1.742453190676346853e-01
1.742453190676346853e-01
1.853267099732518186e-01
1.853267099732518186e-01
1.853267099732518186e-01
1.520825372564004463e-01
1.520825372564004463e-01
1.742453190676346853e-01
1.742453190676346853e-01
1.742453190676346853e-01
1.486434849063813513e-01
1.486434849063813513e-01
1.597248758119984846e-01
1.597248758119984846e-01
1.597248758119984846e-01
1.455865494841421526e-01
1.455865494841421526e-01
1.608712265953381737e-01
1.608712265953381737e-01
1.608712265953381737e-01
1.490256018341612476e-01
1.490256018341612476e-01
1.455865494841421526e-01
1.455865494841421526e-01
1.455865494841421526e-01
1.486434849063813513e-01
1.486434849063813513e-01
1.597248758119984846e-01
1.597248758119984846e-01
1.597248758119984846e-01
1.272449369507069050e-01
1.272449369507069050e-01
1.467329002674818417e-01
1.467329002674818417e-01
1.467329002674818417e-01
1.478792510508215585e-01
1.478792510508215585e-01
1.283912877340466219e-01
1.283912877340466219e-01
1.283912877340466219e-01
1.306839893007260278e-01
1.306839893007260278e-01
1.192204814673289981e-01
1.192204814673289981e-01
1.192204814673289981e-01
1.280091708062667255e-01
1.280091708062667255e-01
1.295376385173863110e-01
1.295376385173863110e-01
1.295376385173863110e-01
1.238058846006878100e-01
1.238058846006878100e-01
1.089033244172716852e-01
1.089033244172716852e-01
1.089033244172716852e-01
1.100496752006113882e-01
1.100496752006113882e-01
1.188383645395491017e-01
1.188383645395491017e-01
1.188383645395491017e-01
1.268628200229270087e-01
1.268628200229270087e-01
1.096675582728314918e-01
1.096675582728314918e-01
1.096675582728314918e-01
1.150171952617500964e-01
1.150171952617500964e-01
1.218952999617883004e-01
1.218952999617883004e-01
1.218952999617883004e-01
1.123423767672907941e-01
1.123423767672907941e-01
1.257164692395873196e-01
1.257164692395873196e-01
1.257164692395873196e-01
1.024073366450133776e-01
1.024073366450133776e-01
9.170806266717615451e-02
9.170806266717615451e-02
9.170806266717615451e-02
1.218952999617883004e-01
1.218952999617883004e-01
9.056171188383645154e-02
9.056171188383645154e-02
9.056171188383645154e-02
9.170806266717615451e-02
9.170806266717615451e-02
1.134887275506304971e-01
1.134887275506304971e-01
1.134887275506304971e-01
8.826901031715704560e-02
8.826901031715704560e-02
1.176920137562093988e-01
1.176920137562093988e-01
1.176920137562093988e-01
8.559419182269774329e-02
8.559419182269774329e-02
8.559419182269774329e-02
8.559419182269774329e-02
8.559419182269774329e-02
1.073748567061520859e-01
1.073748567061520859e-01
8.253725640045854461e-02
8.253725640045854461e-02
8.253725640045854461e-02
1.115781429117309875e-01
1.115781429117309875e-01
8.100878868933893140e-02
8.100878868933893140e-02
8.100878868933893140e-02
8.597630875047763965e-02
8.597630875047763965e-02
8.215513947267863437e-02
8.215513947267863437e-02
8.215513947267863437e-02
9.591134887275505616e-02
9.591134887275505616e-02
7.336645013374092084e-02
7.336645013374092084e-02
7.336645013374092084e-02
8.291937332823844098e-02
8.291937332823844098e-02
8.750477646159725287e-02
8.750477646159725287e-02
8.750477646159725287e-02
7.604126862820022315e-02
7.604126862820022315e-02
7.298433320596102447e-02
7.298433320596102447e-02
7.298433320596102447e-02
9.591134887275505616e-02
9.591134887275505616e-02
7.413068398930072744e-02
7.413068398930072744e-02
7.413068398930072744e-02
8.941536110049674857e-02
8.941536110049674857e-02
8.750477646159725287e-02
8.750477646159725287e-02
8.750477646159725287e-02
7.451280091708062381e-02
7.451280091708062381e-02
7.795185326709973272e-02
7.795185326709973272e-02
7.795185326709973272e-02
6.572411157814291027e-02
6.572411157814291027e-02
6.916316392816201919e-02
6.916316392816201919e-02
6.916316392816201919e-02
8.903324417271685220e-02
8.903324417271685220e-02
9.476499808941536707e-02
9.476499808941536707e-02
9.476499808941536707e-02
6.763469621704241985e-02
6.763469621704241985e-02
6.878104700038212282e-02
6.878104700038212282e-02
6.878104700038212282e-02
6.572411157814291027e-02
6.572411157814291027e-02
6.228505922812380829e-02
6.228505922812380829e-02
6.228505922812380829e-02
6.572411157814291027e-02
6.572411157814291027e-02
8.559419182269774329e-02
8.559419182269774329e-02
8.635842567825754990e-02
8.635842567825754990e-02
8.635842567825754990e-02
6.763469621704241985e-02
6.763469621704241985e-02
8.024455483377913867e-02
8.024455483377913867e-02
8.024455483377913867e-02
8.330149025601833734e-02
8.330149025601833734e-02
6.152082537256400169e-02
6.152082537256400169e-02
6.152082537256400169e-02
6.801681314482231622e-02
6.801681314482231622e-02
6.916316392816201919e-02
6.916316392816201919e-02
6.916316392816201919e-02
6.228505922812380829e-02
6.228505922812380829e-02
8.521207489491784692e-02
8.521207489491784692e-02
8.521207489491784692e-02
7.451280091708062381e-02
7.451280091708062381e-02
5.922812380588460268e-02
5.922812380588460268e-02
5.922812380588460268e-02
6.572411157814291027e-02
6.572411157814291027e-02
5.655330531142529343e-02
5.655330531142529343e-02
5.655330531142529343e-02
8.139090561711884164e-02
8.139090561711884164e-02
7.260221627818112811e-02
7.260221627818112811e-02
7.260221627818112811e-02
6.152082537256400169e-02
6.152082537256400169e-02
5.311425296140619146e-02
5.311425296140619146e-02
5.311425296140619146e-02
7.795185326709973272e-02
7.795185326709973272e-02
5.426060374474589443e-02
5.426060374474589443e-02
5.426060374474589443e-02
5.120366832250668881e-02
5.120366832250668881e-02
5.426060374474589443e-02
5.426060374474589443e-02
5.426060374474589443e-02
4.394344669468857462e-02
4.394344669468857462e-02
7.374856706152083108e-02
7.374856706152083108e-02
7.374856706152083108e-02
4.623614826136798056e-02
4.623614826136798056e-02
7.260221627818112811e-02
7.260221627818112811e-02
7.260221627818112811e-02
4.394344669468857462e-02
4.394344669468857462e-02
7.069163163928161853e-02
7.069163163928161853e-02
7.069163163928161853e-02
5.961024073366449905e-02
5.961024073366449905e-02
5.196790217806648848e-02
5.196790217806648848e-02
5.196790217806648848e-02
4.165074512800916867e-02
4.165074512800916867e-02
6.572411157814291027e-02
6.572411157814291027e-02
6.572411157814291027e-02
6.572411157814291027e-02
6.572411157814291027e-02
4.203286205578907198e-02
4.203286205578907198e-02
4.203286205578907198e-02
4.623614826136798056e-02
4.623614826136798056e-02
6.113870844478410532e-02
6.113870844478410532e-02
6.113870844478410532e-02
4.356132976690867131e-02
4.356132976690867131e-02
5.005731753916698584e-02
5.005731753916698584e-02
5.005731753916698584e-02
6.343141001146350433e-02
6.343141001146350433e-02
3.782957585021016339e-02
3.782957585021016339e-02
3.782957585021016339e-02
6.457776079480320730e-02
6.457776079480320730e-02
4.241497898356897528e-02
4.241497898356897528e-02
4.241497898356897528e-02
6.534199465036301391e-02
6.534199465036301391e-02
5.043943446694688915e-02
5.043943446694688915e-02
5.043943446694688915e-02
6.610622850592280664e-02
6.610622850592280664e-02
4.279709591134887164e-02
4.279709591134887164e-02
4.279709591134887164e-02
4.241497898356897528e-02
4.241497898356897528e-02
6.572411157814291027e-02
6.572411157814291027e-02
6.572411157814291027e-02
6.725257928926250961e-02
6.725257928926250961e-02
6.457776079480320730e-02
6.457776079480320730e-02
6.457776079480320730e-02
7.489491784486053405e-02
7.489491784486053405e-02
6.304929308368360796e-02
6.304929308368360796e-02
6.304929308368360796e-02
9.285441345051585749e-02
9.285441345051585749e-02
9.820405043943446211e-02
9.820405043943446211e-02
9.820405043943446211e-02
8.674054260603744626e-02
8.674054260603744626e-02
1.218952999617883004e-01
1.218952999617883004e-01
1.218952999617883004e-01
1.085212074894917889e-01
1.085212074894917889e-01
1.348872755063049156e-01
1.348872755063049156e-01
1.348872755063049156e-01
1.429117309896828503e-01
1.429117309896828503e-01
1.471150171952617380e-01
1.471150171952617380e-01
1.471150171952617380e-01
1.643102789453572687e-01
1.643102789453572687e-01
1.815055406954527994e-01
1.815055406954527994e-01
1.815055406954527994e-01
2.017577378677875566e-01
2.017577378677875566e-01
2.097821933511654635e-01
2.097821933511654635e-01
2.097821933511654635e-01
2.048146732900267553e-01
2.048146732900267553e-01
2.174245319067634741e-01
2.174245319067634741e-01
2.174245319067634741e-01
2.300343905235001929e-01
2.300343905235001929e-01
2.510508215513947428e-01
2.510508215513947428e-01
2.510508215513947428e-01
2.640427970959113302e-01
2.640427970959113302e-01
2.785632403515475586e-01
2.785632403515475586e-01
2.785632403515475586e-01
3.114252961406190345e-01
3.114252961406190345e-01
3.205961024073366583e-01
3.205961024073366583e-01
3.205961024073366583e-01
3.213603362628964510e-01
3.213603362628964510e-01
3.374092472296522649e-01
3.374092472296522649e-01
3.374092472296522649e-01
3.687428353076040999e-01
3.687428353076040999e-01
3.702713030187237409e-01
3.702713030187237409e-01
3.702713030187237409e-01
4.038975926633550095e-01
4.038975926633550095e-01
4.145968666411922188e-01
4.145968666411922188e-01
4.145968666411922188e-01
4.023691249522353686e-01
4.023691249522353686e-01
4.107756973633931996e-01
4.107756973633931996e-01
4.107756973633931996e-01
4.405808177302254491e-01
4.405808177302254491e-01
4.241497898356897389e-01
4.241497898356897389e-01
4.314100114635078254e-01
4.314100114635078254e-01
4.314100114635078254e-01
4.627435995414596603e-01
4.627435995414596603e-01
4.615972487581199712e-01
4.615972487581199712e-01
4.615972487581199712e-01
4.573939625525410557e-01
4.573939625525410557e-01
4.692395873137180096e-01
4.692395873137180096e-01
4.692395873137180096e-01
4.669468857470385759e-01
4.669468857470385759e-01
4.795567443637753224e-01
4.795567443637753224e-01
4.795567443637753224e-01
4.711501719526174914e-01
4.711501719526174914e-01
5.036301108139090710e-01
5.036301108139090710e-01
5.036301108139090710e-01
5.105082155139473166e-01
5.105082155139473166e-01
5.009552923194497964e-01
5.009552923194497964e-01
5.009552923194497964e-01
5.116545662972870057e-01
5.116545662972870057e-01
5.089797478028276201e-01
5.089797478028276201e-01
5.089797478028276201e-01
4.952235384027512399e-01
4.952235384027512399e-01
4.921666029805120135e-01
4.921666029805120135e-01
4.921666029805120135e-01
5.066870462361482419e-01
5.066870462361482419e-01
4.967520061138708254e-01
4.967520061138708254e-01
4.967520061138708254e-01
5.135651509361864875e-01
5.135651509361864875e-01
5.135651509361864875e-01
5.135651509361864875e-01
5.135651509361864875e-01
4.940771876194115508e-01
4.940771876194115508e-01
4.887275506304929462e-01
4.887275506304929462e-01
4.887275506304929462e-01
4.875811998471532016e-01
4.875811998471532016e-01
5.051585785250286564e-01
5.051585785250286564e-01
5.051585785250286564e-01
4.860527321360336162e-01
4.860527321360336162e-01
5.143293847917462802e-01
5.143293847917462802e-01
5.143293847917462802e-01
4.860527321360336162e-01
4.860527321360336162e-01
4.914023691249522208e-01
4.914023691249522208e-01
4.914023691249522208e-01
5.124188001528467984e-01
5.124188001528467984e-01
4.833779136415743416e-01
4.833779136415743416e-01
4.833779136415743416e-01
4.849063813526939271e-01
4.849063813526939271e-01
4.810852120748949079e-01
4.810852120748949079e-01
4.810852120748949079e-01
4.845242644249140307e-01
4.845242644249140307e-01
5.116545662972870057e-01
5.116545662972870057e-01
5.116545662972870057e-01
5.063049293083683455e-01
5.063049293083683455e-01
4.810852120748949079e-01
4.810852120748949079e-01
4.810852120748949079e-01
5.005731753916699001e-01
5.005731753916699001e-01
4.807030951471150115e-01
4.807030951471150115e-01
4.807030951471150115e-01
4.822315628582345970e-01
4.822315628582345970e-01
4.891096675582728426e-01
4.891096675582728426e-01
4.891096675582728426e-01
4.852884982804738234e-01
4.852884982804738234e-01
4.757355750859763033e-01
4.757355750859763033e-01
4.757355750859763033e-01
5.043943446694688637e-01
5.043943446694688637e-01
4.722965227359571805e-01
4.722965227359571805e-01
4.722965227359571805e-01
4.749713412304165105e-01
4.749713412304165105e-01
4.887275506304929462e-01
4.887275506304929462e-01
4.887275506304929462e-01
4.826136797860144934e-01
4.826136797860144934e-01
4.654184180359189904e-01
4.654184180359189904e-01
4.654184180359189904e-01
4.925487199082919099e-01
4.925487199082919099e-01
4.715322888803973878e-01
4.715322888803973878e-01
4.715322888803973878e-01
4.845242644249140307e-01
4.845242644249140307e-01
4.570118456247611594e-01
4.570118456247611594e-01
4.570118456247611594e-01
4.780282766526557370e-01
4.780282766526557370e-01
4.757355750859763033e-01
4.757355750859763033e-01
4.757355750859763033e-01
4.497516239969430729e-01
4.497516239969430729e-01
4.638899503247994049e-01
4.638899503247994049e-01
4.638899503247994049e-01
4.593045471914405931e-01
4.593045471914405931e-01
4.363775315246465336e-01
4.363775315246465336e-01
4.363775315246465336e-01
4.249140236912495316e-01
4.249140236912495316e-01
4.249140236912495316e-01
4.249140236912495316e-01
4.249140236912495316e-01
4.252961406190294280e-01
4.252961406190294280e-01
4.344669468857470518e-01
4.344669468857470518e-01
4.344669468857470518e-01
4.161253343523118042e-01
4.161253343523118042e-01
4.210928544134505125e-01
4.210928544134505125e-01
4.210928544134505125e-01
3.867023309132594511e-01
3.867023309132594511e-01
4.096293465800535105e-01
4.096293465800535105e-01
4.096293465800535105e-01
3.725640045854031190e-01
3.725640045854031190e-01
3.664501337409247217e-01
3.664501337409247217e-01
3.664501337409247217e-01
3.576614444019869943e-01
3.576614444019869943e-01
3.809705769965609501e-01
3.809705769965609501e-01
3.809705769965609501e-01
3.461979365685899923e-01
3.461979365685899923e-01
3.515475735575085969e-01
3.515475735575085969e-01
3.515475735575085969e-01
3.565150936186473052e-01
3.565150936186473052e-01
3.465800534963698887e-01
3.465800534963698887e-01
3.465800534963698887e-01
3.160106992739778464e-01
3.160106992739778464e-01
3.079862437905999117e-01
3.079862437905999117e-01
3.079862437905999117e-01
3.175391669850974319e-01
3.175391669850974319e-01
3.141001146350783091e-01
3.141001146350783091e-01
3.141001146350783091e-01
2.896446312571647197e-01
2.896446312571647197e-01
2.812380588460068886e-01
2.812380588460068886e-01
2.812380588460068886e-01
3.034008406572410999e-01
3.034008406572410999e-01
2.980512036683224952e-01
2.980512036683224952e-01
2.980512036683224952e-01
2.774168895682078695e-01
2.774168895682078695e-01
2.919373328238440979e-01
2.919373328238440979e-01
2.869698127627053896e-01
2.869698127627053896e-01
2.869698127627053896e-01
2.686282002292701421e-01
2.686282002292701421e-01
2.758884218570882840e-01
2.758884218570882840e-01
2.758884218570882840e-01
2.510508215513947428e-01
2.510508215513947428e-01
2.735957202904088503e-01
2.735957202904088503e-01
2.735957202904088503e-01
2.659533817348108675e-01
2.659533817348108675e-01
2.556362246847535546e-01
2.556362246847535546e-01
2.556362246847535546e-01
2.606037447458922629e-01
2.606037447458922629e-01
2.449369507069163177e-01
2.449369507069163177e-01
2.449369507069163177e-01
2.537256400458540173e-01
2.537256400458540173e-01
2.323270920901795988e-01
2.323270920901795988e-01
2.323270920901795988e-01
2.353840275124187975e-01
2.353840275124187975e-01
2.586931601069927256e-01
2.586931601069927256e-01
2.586931601069927256e-01
2.277416889568207869e-01
2.277416889568207869e-01
2.300343905235001929e-01
2.300343905235001929e-01
2.300343905235001929e-01
2.269774551012609942e-01
2.269774551012609942e-01
2.330913259457393916e-01
2.330913259457393916e-01
2.330913259457393916e-01
2.453190676346962140e-01
2.453190676346962140e-01
2.495223538402751295e-01
2.495223538402751295e-01
2.495223538402751295e-01
2.476117692013756200e-01
2.476117692013756200e-01
2.449369507069163177e-01
2.449369507069163177e-01
2.449369507069163177e-01
2.460833014902560067e-01
2.460833014902560067e-01
2.162781811234237572e-01
2.162781811234237572e-01
2.162781811234237572e-01
2.147497134123041718e-01
2.147497134123041718e-01
2.399694306457776094e-01
2.399694306457776094e-01
2.399694306457776094e-01
2.220099350401222860e-01
2.220099350401222860e-01
2.353840275124187975e-01
2.353840275124187975e-01
2.353840275124187975e-01
2.200993504012227764e-01
2.200993504012227764e-01
2.090179594956056430e-01
2.090179594956056430e-01
2.090179594956056430e-01
2.032862055789071420e-01
2.032862055789071420e-01
2.116927779900649731e-01
2.116927779900649731e-01
2.116927779900649731e-01
1.979365685899885374e-01
1.979365685899885374e-01
2.048146732900267553e-01
2.048146732900267553e-01
2.048146732900267553e-01
2.197172334734428800e-01
2.197172334734428800e-01
1.910584638899503196e-01
1.910584638899503196e-01
1.910584638899503196e-01
2.055789071455865480e-01
2.055789071455865480e-01
1.910584638899503196e-01
1.910584638899503196e-01
1.910584638899503196e-01
2.105464272067252562e-01
2.105464272067252562e-01
1.925869316010699328e-01
1.925869316010699328e-01
1.925869316010699328e-01
1.799770729843332140e-01
1.799770729843332140e-01
1.803591899121131104e-01
1.803591899121131104e-01
1.803591899121131104e-01
1.788307222009934971e-01
1.788307222009934971e-01
1.765380206343140912e-01
1.765380206343140912e-01
1.765380206343140912e-01
1.773022544898739117e-01
1.773022544898739117e-01
1.883836453954910173e-01
1.883836453954910173e-01
1.883836453954910173e-01
1.635460450897974760e-01
1.635460450897974760e-01
1.849445930454719222e-01
1.849445930454719222e-01
1.849445930454719222e-01
1.880015284677111209e-01
1.880015284677111209e-01
1.803591899121131104e-01
1.803591899121131104e-01
1.803591899121131104e-01
1.834161253343523090e-01
1.834161253343523090e-01
1.834161253343523090e-01
1.834161253343523090e-01
1.834161253343523090e-01
1.490256018341612476e-01
1.490256018341612476e-01
1.452044325563622562e-01
1.452044325563622562e-01
1.452044325563622562e-01
1.708062667176155902e-01
1.708062667176155902e-01
1.394726786396637275e-01
1.394726786396637275e-01
1.394726786396637275e-01
1.643102789453572687e-01
1.643102789453572687e-01
1.547573557508597764e-01
1.547573557508597764e-01
1.547573557508597764e-01
1.303018723729461315e-01
1.303018723729461315e-01
1.421474971341230298e-01
1.421474971341230298e-01
1.421474971341230298e-01
1.536110049675200595e-01
1.536110049675200595e-01
1.257164692395873196e-01
1.257164692395873196e-01
1.257164692395873196e-01
1.207489491784486113e-01
1.207489491784486113e-01
1.398547955674436516e-01
1.398547955674436516e-01
1.398547955674436516e-01
1.260985861673672159e-01
1.260985861673672159e-01
1.413832632785632371e-01
1.413832632785632371e-01
1.413832632785632371e-01
1.260985861673672159e-01
1.260985861673672159e-01
1.150171952617500964e-01
1.150171952617500964e-01
1.150171952617500964e-01
1.050821551394726799e-01
1.050821551394726799e-01
1.035536874283530806e-01
1.035536874283530806e-01
1.035536874283530806e-01
1.303018723729461315e-01
1.303018723729461315e-01
1.008788689338937783e-01
1.008788689338937783e-01
1.008788689338937783e-01
1.081390905617118786e-01
1.081390905617118786e-01
1.165456629728696958e-01
1.165456629728696958e-01
1.165456629728696958e-01
1.230416507451280034e-01
1.230416507451280034e-01
1.157814291173099031e-01
1.157814291173099031e-01
1.157814291173099031e-01
8.788689338937714923e-02
8.788689338937714923e-02
1.058463889950324865e-01
1.058463889950324865e-01
1.058463889950324865e-01
1.008788689338937783e-01
1.008788689338937783e-01
8.521207489491784692e-02
8.521207489491784692e-02
8.521207489491784692e-02
9.209017959495605088e-02
9.209017959495605088e-02
8.521207489491784692e-02
8.521207489491784692e-02
8.024455483377913867e-02
8.024455483377913867e-02
8.024455483377913867e-02
8.979747802827665881e-02
8.979747802827665881e-02
7.948032097821933206e-02
7.948032097821933206e-02
7.948032097821933206e-02
1.043179212839128733e-01
1.043179212839128733e-01
7.680550248376002975e-02
7.680550248376002975e-02
7.680550248376002975e-02
8.139090561711884164e-02
8.139090561711884164e-02
7.069163163928161853e-02
7.069163163928161853e-02
7.069163163928161853e-02
7.909820405043943570e-02
7.909820405043943570e-02
8.215513947267863437e-02
8.215513947267863437e-02
8.215513947267863437e-02
8.750477646159725287e-02
8.750477646159725287e-02
6.495987772258310367e-02
6.495987772258310367e-02
6.495987772258310367e-02
8.674054260603744626e-02
8.674054260603744626e-02
7.222009935040121786e-02
7.222009935040121786e-02
7.222009935040121786e-02
7.336645013374092084e-02
7.336645013374092084e-02
8.635842567825754990e-02
8.635842567825754990e-02
8.635842567825754990e-02
7.795185326709973272e-02
7.795185326709973272e-02
6.190294230034390499e-02
6.190294230034390499e-02
6.190294230034390499e-02
6.725257928926250961e-02
6.725257928926250961e-02
5.464272067252579079e-02
5.464272067252579079e-02
5.464272067252579079e-02
5.578907145586549376e-02
5.578907145586549376e-02
5.999235766144440235e-02
5.999235766144440235e-02
5.999235766144440235e-02
5.464272067252579079e-02
5.464272067252579079e-02
5.999235766144440235e-02
5.999235766144440235e-02
5.999235766144440235e-02
5.387848681696599112e-02
5.387848681696599112e-02
6.878104700038212282e-02
6.878104700038212282e-02
6.878104700038212282e-02
5.349636988918608782e-02
5.349636988918608782e-02
6.457776079480320730e-02
6.457776079480320730e-02
6.457776079480320730e-02
5.540695452808559740e-02
5.540695452808559740e-02
4.470768055024837428e-02
4.470768055024837428e-02
4.470768055024837428e-02
4.891096675582728287e-02
4.891096675582728287e-02
5.426060374474589443e-02
5.426060374474589443e-02
5.426060374474589443e-02
5.235001910584639179e-02
5.235001910584639179e-02
7.756973633931983636e-02
7.756973633931983636e-02
7.756973633931983636e-02
4.585403133358807726e-02
4.585403133358807726e-02
7.298433320596102447e-02
7.298433320596102447e-02
7.298433320596102447e-02
5.808177302254489971e-02
5.808177302254489971e-02
7.145586549484142513e-02
7.145586549484142513e-02
7.145586549484142513e-02
4.623614826136798056e-02
4.623614826136798056e-02
5.961024073366449905e-02
5.961024073366449905e-02
5.961024073366449905e-02
5.502483760030569410e-02
5.502483760030569410e-02
5.961024073366449905e-02
5.961024073366449905e-02
5.961024073366449905e-02
6.113870844478410532e-02
6.113870844478410532e-02
4.508979747802827759e-02
4.508979747802827759e-02
4.508979747802827759e-02
7.183798242262132150e-02
7.183798242262132150e-02
6.304929308368360796e-02
6.304929308368360796e-02
6.304929308368360796e-02
5.884600687810469938e-02
5.884600687810469938e-02
4.623614826136798056e-02
4.623614826136798056e-02
4.623614826136798056e-02
4.470768055024837428e-02
4.470768055024837428e-02
6.687046236148261324e-02
6.687046236148261324e-02
6.687046236148261324e-02
6.381352693924341457e-02
6.381352693924341457e-02
7.030951471150172216e-02
7.030951471150172216e-02
7.030951471150172216e-02
6.725257928926250961e-02
6.725257928926250961e-02
3.821169277799006669e-02
3.821169277799006669e-02
3.821169277799006669e-02
6.228505922812380829e-02
6.228505922812380829e-02
6.495987772258310367e-02
6.495987772258310367e-02
6.495987772258310367e-02
6.916316392816201919e-02
6.916316392816201919e-02
6.495987772258310367e-02
6.495987772258310367e-02
6.495987772258310367e-02
4.661826518914787693e-02
4.661826518914787693e-02
3.553687428353075745e-02
3.553687428353075745e-02
3.553687428353075745e-02
4.547191440580817395e-02
4.547191440580817395e-02
3.553687428353075745e-02
3.553687428353075745e-02
3.553687428353075745e-02
5.082155139472678551e-02
5.082155139472678551e-02
3.859380970576996306e-02
3.859380970576996306e-02
3.859380970576996306e-02
3.974016048910966603e-02
3.974016048910966603e-02
5.120366832250668881e-02
5.120366832250668881e-02
5.120366832250668881e-02
5.808177302254489971e-02
5.808177302254489971e-02
4.279709591134887164e-02
4.279709591134887164e-02
4.279709591134887164e-02
3.133358807795185580e-02
3.133358807795185580e-02
6.419564386702331094e-02
6.419564386702331094e-02
6.419564386702331094e-02
3.400840657241115811e-02
3.400840657241115811e-02
3.400840657241115811e-02
3.400840657241115811e-02
3.400840657241115811e-02
5.731753916698510004e-02
5.731753916698510004e-02
3.782957585021016339e-02
3.782957585021016339e-02
3.782957585021016339e-02
3.095147115017195250e-02
3.095147115017195250e-02
5.005731753916698584e-02
5.005731753916698584e-02
5.005731753916698584e-02
5.273213603362628815e-02
5.273213603362628815e-02
4.050439434466946570e-02
4.050439434466946570e-02
4.050439434466946570e-02
2.980512036683224952e-02
2.980512036683224952e-02
3.209782193351165547e-02
3.209782193351165547e-02
3.209782193351165547e-02
2.751241880015284705e-02
2.751241880015284705e-02
4.356132976690867131e-02
4.356132976690867131e-02
4.356132976690867131e-02
4.432556362246847792e-02
4.432556362246847792e-02
3.897592663354986636e-02
3.897592663354986636e-02
5.349636988918608782e-02
5.349636988918608782e-02
5.349636988918608782e-02
3.439052350019106141e-02
3.439052350019106141e-02
2.330913259457393846e-02
2.330913259457393846e-02
2.330913259457393846e-02
3.133358807795185580e-02
3.133358807795185580e-02
4.508979747802827759e-02
4.508979747802827759e-02
4.508979747802827759e-02
3.630110813909056405e-02
3.630110813909056405e-02
2.598395108903324424e-02
2.598395108903324424e-02
2.598395108903324424e-02
5.120366832250668881e-02
5.120366832250668881e-02
4.891096675582728287e-02
4.891096675582728287e-02
4.891096675582728287e-02
4.776461597248757990e-02
4.776461597248757990e-02
3.897592663354986636e-02
3.897592663354986636e-02
3.897592663354986636e-02
2.063431410011463615e-02
2.063431410011463615e-02
2.101643102789453599e-02
2.101643102789453599e-02
2.101643102789453599e-02
1.987008024455483302e-02
1.987008024455483302e-02
2.216278181123423896e-02
2.216278181123423896e-02
2.216278181123423896e-02
2.827665265571264672e-02
2.827665265571264672e-02
3.056935422239205266e-02
3.056935422239205266e-02
3.056935422239205266e-02
1.872372946121513351e-02
1.872372946121513351e-02
2.598395108903324424e-02
2.598395108903324424e-02
2.598395108903324424e-02
4.585403133358807726e-02
4.585403133358807726e-02
2.521971723347344457e-02
2.521971723347344457e-02
2.521971723347344457e-02
5.235001910584639179e-02
5.235001910584639179e-02
2.139854795567443582e-02
2.139854795567443582e-02
2.139854795567443582e-02
4.585403133358807726e-02
4.585403133358807726e-02
4.891096675582728287e-02
4.891096675582728287e-02
4.891096675582728287e-02
4.661826518914787693e-02
4.661826518914787693e-02
4.508979747802827759e-02
4.508979747802827759e-02
4.508979747802827759e-02
3.018723729461215283e-02
3.018723729461215283e-02
5.311425296140619146e-02
5.311425296140619146e-02
5.311425296140619146e-02
6.916316392816201919e-02
6.916316392816201919e-02
7.222009935040121786e-02
7.222009935040121786e-02
7.222009935040121786e-02
6.763469621704241985e-02
6.763469621704241985e-02
8.674054260603744626e-02
8.674054260603744626e-02
8.674054260603744626e-02
8.750477646159725287e-02
8.750477646159725287e-02
8.788689338937714923e-02
8.788689338937714923e-02
8.788689338937714923e-02
1.153993121895299928e-01
1.153993121895299928e-01
1.253343523118074232e-01
1.253343523118074232e-01
1.253343523118074232e-01
1.291555215896064146e-01
1.291555215896064146e-01
1.467329002674818417e-01
1.467329002674818417e-01
1.467329002674818417e-01
1.379442109285441420e-01
1.379442109285441420e-01
1.608712265953381737e-01
1.608712265953381737e-01
1.608712265953381737e-01
1.853267099732518186e-01
1.853267099732518186e-01
1.948796331677493388e-01
1.948796331677493388e-01
1.948796331677493388e-01
2.097821933511654635e-01
2.097821933511654635e-01
2.372946121513183071e-01
2.372946121513183071e-01
2.372946121513183071e-01
2.269774551012609942e-01
2.269774551012609942e-01
2.422621322124570153e-01
2.422621322124570153e-01
2.422621322124570153e-01
2.686282002292701421e-01
2.686282002292701421e-01
2.927015666794038906e-01
2.927015666794038906e-01
2.927015666794038906e-01
2.969048528849828061e-01
2.969048528849828061e-01
3.076041268628200154e-01
3.076041268628200154e-01
3.076041268628200154e-01
3.488727550630492669e-01
3.488727550630492669e-01
3.523118074130683897e-01
3.523118074130683897e-01
3.523118074130683897e-01
3.626289644631257025e-01
3.626289644631257025e-01
3.599541459686664280e-01
3.599541459686664280e-01
3.599541459686664280e-01
3.870844478410393474e-01
3.870844478410393474e-01
3.924340848299579521e-01
3.924340848299579521e-01
3.924340848299579521e-01
3.844096293465800729e-01
3.844096293465800729e-01
3.996943064577760940e-01
3.996943064577760940e-01
3.996943064577760940e-01
4.172716851356514933e-01
4.172716851356514933e-01
4.337027130301872591e-01
4.337027130301872591e-01
4.337027130301872591e-01
4.222392051967902016e-01
4.222392051967902016e-01
4.524264424914023475e-01
4.524264424914023475e-01
4.524264424914023475e-01
4.650363011081390940e-01
4.650363011081390940e-01
4.589224302636606967e-01
4.589224302636606967e-01
4.589224302636606967e-01
4.703859380970576987e-01
4.703859380970576987e-01
4.627435995414596603e-01
4.627435995414596603e-01
4.627435995414596603e-01
4.810852120748949079e-01
4.810852120748949079e-01
4.826136797860144934e-01
4.826136797860144934e-01
4.826136797860144934e-01
4.807030951471150115e-01
4.807030951471150115e-01
4.875811998471532016e-01
4.875811998471532016e-01
4.875811998471532016e-01
4.879633167749331535e-01
4.879633167749331535e-01
4.906381352693924280e-01
4.906381352693924280e-01
4.906381352693924280e-01
4.936950706916316545e-01
4.936950706916316545e-01
4.963698891860909290e-01
4.963698891860909290e-01
4.963698891860909290e-01
4.975162399694306181e-01
4.975162399694306181e-01
4.856706152082537198e-01
4.856706152082537198e-01
4.856706152082537198e-01
4.906381352693924280e-01
4.906381352693924280e-01
4.799388612915552188e-01
4.799388612915552188e-01
4.799388612915552188e-01
4.906381352693924280e-01
4.906381352693924280e-01
4.944593045471914472e-01
4.944593045471914472e-01
4.948414214749713436e-01
4.948414214749713436e-01
4.948414214749713436e-01
4.715322888803973878e-01
4.715322888803973878e-01
4.998089415361100518e-01
4.998089415361100518e-01
4.998089415361100518e-01
4.829957967137944452e-01
4.829957967137944452e-01
4.787925105082155297e-01
4.787925105082155297e-01
4.787925105082155297e-01
4.807030951471150115e-01
4.807030951471150115e-01
4.715322888803973878e-01
4.715322888803973878e-01
4.715322888803973878e-01
4.734428735192969251e-01
4.734428735192969251e-01
4.952235384027512399e-01
4.952235384027512399e-01
4.952235384027512399e-01
4.971341230416507218e-01
4.971341230416507218e-01
4.707680550248375950e-01
4.707680550248375950e-01
4.707680550248375950e-01
4.807030951471150115e-01
4.807030951471150115e-01
4.956056553305311363e-01
4.956056553305311363e-01
4.956056553305311363e-01
4.990447076805502591e-01
4.990447076805502591e-01
4.734428735192969251e-01
4.734428735192969251e-01
4.734428735192969251e-01
4.860527321360336162e-01
4.860527321360336162e-01
4.646541841803591977e-01
4.646541841803591977e-01
4.646541841803591977e-01
4.688574703859381132e-01
4.688574703859381132e-01
4.952235384027512399e-01
4.952235384027512399e-01
4.952235384027512399e-01
4.902560183416125317e-01
4.902560183416125317e-01
4.929308368360718617e-01
4.929308368360718617e-01
4.929308368360718617e-01
4.661826518914787831e-01
4.661826518914787831e-01
4.837600305693542380e-01
4.837600305693542380e-01
4.837600305693542380e-01
4.841421474971341343e-01
4.841421474971341343e-01
4.761176920137561996e-01
4.761176920137561996e-01
4.761176920137561996e-01
4.615972487581199712e-01
4.615972487581199712e-01
4.543370271303018848e-01
4.543370271303018848e-01
4.543370271303018848e-01
4.570118456247611594e-01
4.570118456247611594e-01
4.547191440580817812e-01
4.547191440580817812e-01
4.547191440580817812e-01
4.711501719526174914e-01
4.711501719526174914e-01
4.558654948414214703e-01
4.558654948414214703e-01
4.558654948414214703e-01
4.635078333970195086e-01
4.635078333970195086e-01
4.486052732136033838e-01
4.486052732136033838e-01
4.486052732136033838e-01
4.432556362246847792e-01
4.432556362246847792e-01
4.535727932747420921e-01
4.535727932747420921e-01
4.535727932747420921e-01
4.489873901413832802e-01
4.489873901413832802e-01
4.424914023691249310e-01
4.424914023691249310e-01
4.424914023691249310e-01
4.111578142911730960e-01
4.111578142911730960e-01
4.050439434466946986e-01
4.050439434466946986e-01
4.050439434466946986e-01
4.283530760412686544e-01
4.283530760412686544e-01
3.935804356132976967e-01
3.935804356132976967e-01
3.935804356132976967e-01
4.138326327856324260e-01
4.138326327856324260e-01
4.069545280855941805e-01
4.069545280855941805e-01
4.069545280855941805e-01
3.859380970576996583e-01
3.859380970576996583e-01
3.714176538020634299e-01
3.714176538020634299e-01
3.714176538020634299e-01
3.744745892243026564e-01
3.744745892243026564e-01
3.538402751241879751e-01
3.538402751241879751e-01
3.538402751241879751e-01
3.496369889186091151e-01
3.496369889186091151e-01
3.366450133740924722e-01
3.366450133740924722e-01
3.366450133740924722e-01
3.404661826518914913e-01
3.404661826518914913e-01
3.301490256018341785e-01
3.301490256018341785e-01
3.301490256018341785e-01
3.232709209017959329e-01
3.232709209017959329e-01
3.377913641574321613e-01
3.377913641574321613e-01
3.377913641574321613e-01
3.102789453572793454e-01
3.102789453572793454e-01
3.244172716851356775e-01
3.244172716851356775e-01
3.244172716851356775e-01
3.072220099350401190e-01
3.072220099350401190e-01
3.198318685517768656e-01
3.198318685517768656e-01
3.198318685517768656e-01
2.873519296904852860e-01
2.873519296904852860e-01
3.079862437905999117e-01
3.079862437905999117e-01
3.079862437905999117e-01
2.999617883072220326e-01
2.999617883072220326e-01
2.831486434849063705e-01
2.831486434849063705e-01
2.831486434849063705e-01
2.877340466182651824e-01
2.877340466182651824e-01
2.915552158960642015e-01
2.915552158960642015e-01
2.915552158960642015e-01
2.888803974016048715e-01
2.888803974016048715e-01
2.621322124570118484e-01
2.621322124570118484e-01
2.621322124570118484e-01
2.728314864348490576e-01
2.728314864348490576e-01
2.820022927015666814e-01
2.820022927015666814e-01
2.820022927015666814e-01
2.499044707680550259e-01
2.499044707680550259e-01
2.758884218570882840e-01
2.758884218570882840e-01
2.758884218570882840e-01
2.487581199847153091e-01
2.487581199847153091e-01
2.640427970959113302e-01
2.640427970959113302e-01
2.640427970959113302e-01
2.670997325181505566e-01
2.670997325181505566e-01
2.441727168513565249e-01
2.441727168513565249e-01
2.441727168513565249e-01
2.586931601069927256e-01
2.586931601069927256e-01
2.495223538402751295e-01
2.495223538402751295e-01
2.495223538402751295e-01
2.422621322124570153e-01
2.422621322124570153e-01
2.667176155903706603e-01
2.667176155903706603e-01
2.667176155903706603e-01
2.372946121513183071e-01
2.372946121513183071e-01
2.334734428735192879e-01
2.334734428735192879e-01
2.334734428735192879e-01
2.644249140236912266e-01
2.644249140236912266e-01
2.548719908291937064e-01
2.548719908291937064e-01
2.613679786014520556e-01
2.613679786014520556e-01
2.613679786014520556e-01
2.307986243790599856e-01
2.307986243790599856e-01
2.300343905235001929e-01
2.300343905235001929e-01
2.300343905235001929e-01
2.460833014902560067e-01
2.460833014902560067e-01
2.281238058846006833e-01
2.281238058846006833e-01
2.281238058846006833e-01
2.296522735957202965e-01
2.296522735957202965e-01
2.369124952235384107e-01
2.369124952235384107e-01
2.369124952235384107e-01
2.502865876958349500e-01
2.502865876958349500e-01
2.376767290790982035e-01
2.376767290790982035e-01
2.376767290790982035e-01
2.239205196790217678e-01
2.239205196790217678e-01
2.174245319067634741e-01
2.174245319067634741e-01
2.174245319067634741e-01
2.227741688956820787e-01
2.227741688956820787e-01
2.162781811234237572e-01
2.162781811234237572e-01
2.162781811234237572e-01
2.323270920901795988e-01
2.323270920901795988e-01
2.132212457011845586e-01
2.132212457011845586e-01
2.132212457011845586e-01
2.071073748567061612e-01
2.071073748567061612e-01
2.067252579289262648e-01
2.067252579289262648e-01
2.067252579289262648e-01
2.330913259457393916e-01
2.330913259457393916e-01
2.330913259457393916e-01
2.330913259457393916e-01
2.330913259457393916e-01
1.990829193733282265e-01
1.990829193733282265e-01
2.189529996178830595e-01
2.189529996178830595e-01
2.189529996178830595e-01
2.009935040122277361e-01
2.009935040122277361e-01
2.120748949178448695e-01
2.120748949178448695e-01
2.120748949178448695e-01
2.189529996178830595e-01
2.189529996178830595e-01
1.899121131066106305e-01
1.899121131066106305e-01
1.899121131066106305e-01
2.136033626289644549e-01
2.136033626289644549e-01
1.944975162399694424e-01
1.944975162399694424e-01
1.944975162399694424e-01
1.811234237676729031e-01
1.811234237676729031e-01
1.815055406954527994e-01
1.815055406954527994e-01
1.815055406954527994e-01
1.742453190676346853e-01
1.742453190676346853e-01
1.990829193733282265e-01
1.990829193733282265e-01
1.990829193733282265e-01
1.677493312953763915e-01
1.677493312953763915e-01
1.826518914787925163e-01
1.826518914787925163e-01
1.826518914787925163e-01
1.891478792510508100e-01
1.891478792510508100e-01
1.662208635842567783e-01
1.662208635842567783e-01
1.662208635842567783e-01
1.750095529231945057e-01
1.750095529231945057e-01
1.876194115399312246e-01
1.876194115399312246e-01
1.876194115399312246e-01
1.792128391287733935e-01
1.792128391287733935e-01
1.685135651509361843e-01
1.685135651509361843e-01
1.685135651509361843e-01
1.784486052732136008e-01
1.784486052732136008e-01
1.627818112342376833e-01
1.627818112342376833e-01
1.627818112342376833e-01
1.448223156285823598e-01
1.448223156285823598e-01
1.406190294230034443e-01
1.406190294230034443e-01
1.406190294230034443e-01
1.547573557508597764e-01
1.547573557508597764e-01
1.608712265953381737e-01
1.608712265953381737e-01
1.608712265953381737e-01
1.410011463507833407e-01
1.410011463507833407e-01
1.360336262896446324e-01
1.360336262896446324e-01
1.360336262896446324e-01
1.574321742453190787e-01
1.574321742453190787e-01
1.444401987008024357e-01
1.444401987008024357e-01
1.444401987008024357e-01
1.474971341230416622e-01
1.474971341230416622e-01
1.566679403897592582e-01
1.566679403897592582e-01
1.566679403897592582e-01
1.352693924340848397e-01
1.352693924340848397e-01
1.467329002674818417e-01
1.467329002674818417e-01
1.467329002674818417e-01
1.463507833397019453e-01
1.463507833397019453e-01
1.394726786396637275e-01
1.394726786396637275e-01
1.394726786396637275e-01
1.253343523118074232e-01
1.253343523118074232e-01
1.394726786396637275e-01
1.394726786396637275e-01
1.394726786396637275e-01
1.142529614061902898e-01
1.142529614061902898e-01
1.218952999617883004e-01
1.218952999617883004e-01
1.218952999617883004e-01
1.222774168895682106e-01
1.222774168895682106e-01
1.360336262896446324e-01
1.360336262896446324e-01
1.360336262896446324e-01
1.100496752006113882e-01
1.100496752006113882e-01
1.287734046618265182e-01
1.287734046618265182e-01
1.287734046618265182e-01
1.134887275506304971e-01
1.134887275506304971e-01
1.027894535727932740e-01
1.027894535727932740e-01
1.027894535727932740e-01
1.329766908674054338e-01
1.329766908674054338e-01
1.299197554451662073e-01
1.299197554451662073e-01
1.299197554451662073e-01
1.111960259839510912e-01
1.111960259839510912e-01
1.085212074894917889e-01
1.085212074894917889e-01
1.085212074894917889e-01
9.820405043943446211e-02
9.820405043943446211e-02
1.050821551394726799e-01
1.050821551394726799e-01
1.050821551394726799e-01
1.035536874283530806e-01
1.035536874283530806e-01
1.173098968284295024e-01
1.173098968284295024e-01
1.173098968284295024e-01
9.858616736721437235e-02
9.858616736721437235e-02
1.031715705005731704e-01
1.031715705005731704e-01
1.031715705005731704e-01
1.058463889950324865e-01
1.058463889950324865e-01
9.629346580053496640e-02
9.629346580053496640e-02
9.629346580053496640e-02
1.043179212839128733e-01
1.043179212839128733e-01
9.438288116163545682e-02
9.438288116163545682e-02
9.438288116163545682e-02
9.400076423385556046e-02
9.400076423385556046e-02
9.705769965609475913e-02
9.705769965609475913e-02
9.705769965609475913e-02
1.062285059228123829e-01
1.062285059228123829e-01
1.180741306839892951e-01
1.180741306839892951e-01
9.820405043943446211e-02
9.820405043943446211e-02
9.820405043943446211e-02
1.169277799006495921e-01
1.169277799006495921e-01
8.941536110049674857e-02
8.941536110049674857e-02
8.941536110049674857e-02
1.180741306839892951e-01
1.180741306839892951e-01
1.192204814673289981e-01
1.192204814673289981e-01
1.192204814673289981e-01
1.047000382116927836e-01
1.047000382116927836e-01
8.826901031715704560e-02
8.826901031715704560e-02
8.826901031715704560e-02
8.750477646159725287e-02
8.750477646159725287e-02
1.150171952617500964e-01
1.150171952617500964e-01
1.150171952617500964e-01
8.865112724493695584e-02
8.865112724493695584e-02
1.012609858616736747e-01
1.012609858616736747e-01
1.012609858616736747e-01
1.035536874283530806e-01
1.035536874283530806e-01
8.903324417271685220e-02
8.903324417271685220e-02
8.903324417271685220e-02
1.192204814673289981e-01
1.192204814673289981e-01
8.941536110049674857e-02
8.941536110049674857e-02
8.941536110049674857e-02
1.001146350783339717e-01
1.001146350783339717e-01
8.750477646159725287e-02
8.750477646159725287e-02
8.750477646159725287e-02
9.361864730607566409e-02
9.361864730607566409e-02
1.180741306839892951e-01
1.180741306839892951e-01
1.180741306839892951e-01
1.089033244172716852e-01
1.089033244172716852e-01
1.092854413450515816e-01
1.092854413450515816e-01
1.092854413450515816e-01
9.705769965609475913e-02
9.705769965609475913e-02
1.188383645395491017e-01
1.188383645395491017e-01
1.188383645395491017e-01
1.150171952617500964e-01
1.150171952617500964e-01
9.323653037829575385e-02
9.323653037829575385e-02
9.323653037829575385e-02
1.108139090561711948e-01
1.108139090561711948e-01
1.123423767672907941e-01
1.123423767672907941e-01
1.123423767672907941e-01
9.858616736721437235e-02
9.858616736721437235e-02
1.257164692395873196e-01
1.257164692395873196e-01
1.257164692395873196e-01
1.100496752006113882e-01
1.100496752006113882e-01
1.196025983951089083e-01
1.196025983951089083e-01
1.196025983951089083e-01
1.069927397783721756e-01
1.069927397783721756e-01
1.001146350783339717e-01
1.001146350783339717e-01
1.001146350783339717e-01
1.230416507451280034e-01
1.230416507451280034e-01
1.192204814673289981e-01
1.192204814673289981e-01
1.192204814673289981e-01
1.203668322506687011e-01
1.203668322506687011e-01
9.743981658387466938e-02
9.743981658387466938e-02
9.743981658387466938e-02
1.241880015284677063e-01
1.241880015284677063e-01
1.119602598395108839e-01
1.119602598395108839e-01
1.119602598395108839e-01
1.142529614061902898e-01
1.142529614061902898e-01
1.253343523118074232e-01
1.253343523118074232e-01
1.253343523118074232e-01
1.004967520061138680e-01
1.004967520061138680e-01
1.001146350783339717e-01
1.001146350783339717e-01
1.001146350783339717e-01
1.150171952617500964e-01
1.150171952617500964e-01
1.264807030951471123e-01
1.264807030951471123e-01
1.264807030951471123e-01
1.142529614061902898e-01
1.142529614061902898e-01
1.226595338173481070e-01
1.226595338173481070e-01
1.226595338173481070e-01
9.820405043943446211e-02
9.820405043943446211e-02
1.257164692395873196e-01
1.257164692395873196e-01
1.257164692395873196e-01
1.260985861673672159e-01
1.260985861673672159e-01
1.134887275506304971e-01
1.134887275506304971e-01
1.134887275506304971e-01
1.008788689338937783e-01
1.008788689338937783e-01
1.142529614061902898e-01
1.142529614061902898e-01
1.142529614061902898e-01
1.062285059228123829e-01
1.062285059228123829e-01
9.209017959495605088e-02
9.209017959495605088e-02
9.209017959495605088e-02
1.199847153228888047e-01
1.199847153228888047e-01
1.123423767672907941e-01
1.123423767672907941e-01
1.123423767672907941e-01
1.039358043561329770e-01
1.039358043561329770e-01
1.169277799006495921e-01
1.169277799006495921e-01
1.169277799006495921e-01
1.173098968284295024e-01
1.173098968284295024e-01
1.157814291173099031e-01
1.157814291173099031e-01
1.157814291173099031e-01
1.096675582728314918e-01
1.096675582728314918e-01
1.157814291173099031e-01
1.157814291173099031e-01
1.157814291173099031e-01
1.069927397783721756e-01
1.069927397783721756e-01
1.153993121895299928e-01
1.153993121895299928e-01
1.153993121895299928e-01
8.903324417271685220e-02
8.903324417271685220e-02
9.591134887275505616e-02
9.591134887275505616e-02
9.591134887275505616e-02
1.192204814673289981e-01
1.192204814673289981e-01
1.180741306839892951e-01
1.180741306839892951e-01
1.180741306839892951e-01
8.979747802827665881e-02
8.979747802827665881e-02
9.743981658387466938e-02
9.743981658387466938e-02
9.743981658387466938e-02
1.104317921283912846e-01
1.104317921283912846e-01
1.058463889950324865e-01
1.058463889950324865e-01
1.058463889950324865e-01
1.016431027894535710e-01
1.016431027894535710e-01
9.705769965609475913e-02
9.705769965609475913e-02
9.705769965609475913e-02
9.132594573939625815e-02
9.132594573939625815e-02
8.444784103935804032e-02
8.444784103935804032e-02
8.444784103935804032e-02
8.521207489491784692e-02
8.521207489491784692e-02
1.069927397783721756e-01
1.069927397783721756e-01
1.069927397783721756e-01
1.089033244172716852e-01
1.089033244172716852e-01
8.482995796713795056e-02
8.482995796713795056e-02
1.085212074894917889e-01
1.085212074894917889e-01
1.085212074894917889e-01
9.438288116163545682e-02
9.438288116163545682e-02
8.788689338937714923e-02
8.788689338937714923e-02
8.788689338937714923e-02
1.108139090561711948e-01
1.108139090561711948e-01
9.170806266717615451e-02
9.170806266717615451e-02
9.170806266717615451e-02
1.100496752006113882e-01
1.100496752006113882e-01
1.169277799006495921e-01
1.169277799006495921e-01
1.169277799006495921e-01
1.153993121895299928e-01
1.153993121895299928e-01
1.310661062285059242e-01
1.310661062285059242e-01
1.310661062285059242e-01
1.050821551394726799e-01
1.050821551394726799e-01
1.348872755063049156e-01
1.348872755063049156e-01
1.348872755063049156e-01
1.352693924340848397e-01
1.352693924340848397e-01
1.517004203286205499e-01
1.517004203286205499e-01
1.517004203286205499e-01
1.559037065341994654e-01
1.559037065341994654e-01
1.429117309896828503e-01
1.429117309896828503e-01
1.429117309896828503e-01
1.566679403897592582e-01
1.566679403897592582e-01
1.780664883454337044e-01
1.780664883454337044e-01
1.780664883454337044e-01
1.941153993121895183e-01
1.941153993121895183e-01
2.197172334734428800e-01
2.197172334734428800e-01
2.197172334734428800e-01
2.048146732900267553e-01
