2.120748949178448695e-01
2.120748949178448695e-01
2.189529996178830595e-01
2.189529996178830595e-01
2.189529996178830595e-01
2.051967902178066516e-01
2.051967902178066516e-01
2.170424149789835777e-01
2.170424149789835777e-01
2.170424149789835777e-01
2.174245319067634741e-01
2.174245319067634741e-01
2.067252579289262648e-01
2.067252579289262648e-01
2.067252579289262648e-01
2.036683225066870384e-01
2.036683225066870384e-01
2.086358425678257467e-01
2.086358425678257467e-01
2.086358425678257467e-01
1.975544516622086411e-01
1.975544516622086411e-01
2.071073748567061612e-01
2.071073748567061612e-01
2.071073748567061612e-01
1.952617500955292351e-01
1.952617500955292351e-01
1.998471532288880470e-01
1.998471532288880470e-01
1.998471532288880470e-01
1.983186855177684338e-01
1.983186855177684338e-01
2.025219717233473493e-01
2.025219717233473493e-01
2.025219717233473493e-01
1.883836453954910173e-01
1.883836453954910173e-01
1.990829193733282265e-01
1.990829193733282265e-01
1.990829193733282265e-01
1.880015284677111209e-01
1.880015284677111209e-01
1.967902178066488483e-01
1.967902178066488483e-01
1.967902178066488483e-01
1.868551776843714041e-01
1.868551776843714041e-01
1.964081008788689242e-01
1.964081008788689242e-01
1.964081008788689242e-01
1.876194115399312246e-01
1.876194115399312246e-01
1.792128391287733935e-01
1.792128391287733935e-01
1.792128391287733935e-01
1.799770729843332140e-01
1.799770729843332140e-01
1.776843714176538080e-01
1.776843714176538080e-01
1.776843714176538080e-01
1.792128391287733935e-01
1.792128391287733935e-01
1.807413068398930067e-01
1.807413068398930067e-01
1.807413068398930067e-01
1.830340084065724127e-01
1.830340084065724127e-01
1.799770729843332140e-01
1.799770729843332140e-01
1.860909438288116113e-01
1.860909438288116113e-01
1.860909438288116113e-01
1.738632021398547889e-01
1.738632021398547889e-01
1.883836453954910173e-01
1.883836453954910173e-01
1.883836453954910173e-01
1.830340084065724127e-01
1.830340084065724127e-01
1.807413068398930067e-01
1.807413068398930067e-01
1.807413068398930067e-01
1.826518914787925163e-01
1.826518914787925163e-01
1.822697745510126199e-01
1.822697745510126199e-01
1.822697745510126199e-01
1.677493312953763915e-01
1.677493312953763915e-01
1.715705005731753829e-01
1.715705005731753829e-01
1.715705005731753829e-01
1.742453190676346853e-01
1.742453190676346853e-01
1.738632021398547889e-01
1.738632021398547889e-01
1.738632021398547889e-01
1.738632021398547889e-01
1.738632021398547889e-01
1.654566297286969856e-01
1.654566297286969856e-01
1.654566297286969856e-01
1.730989682842949962e-01
1.730989682842949962e-01
1.700420328620557975e-01
1.700420328620557975e-01
1.700420328620557975e-01
1.627818112342376833e-01
1.627818112342376833e-01
1.734810852120748925e-01
1.734810852120748925e-01
1.734810852120748925e-01
1.765380206343140912e-01
1.765380206343140912e-01
1.673672143675964952e-01
1.673672143675964952e-01
1.673672143675964952e-01
1.677493312953763915e-01
1.677493312953763915e-01
1.677493312953763915e-01
1.677493312953763915e-01
1.677493312953763915e-01
1.623996943064577869e-01
1.623996943064577869e-01
1.608712265953381737e-01
1.608712265953381737e-01
1.608712265953381737e-01
1.574321742453190787e-01
1.574321742453190787e-01
1.608712265953381737e-01
1.608712265953381737e-01
1.608712265953381737e-01
1.551394726786396727e-01
1.551394726786396727e-01
1.650745128009170892e-01
1.650745128009170892e-01
1.650745128009170892e-01
1.528467711119602668e-01
1.528467711119602668e-01
1.696599159342759011e-01
1.696599159342759011e-01
1.696599159342759011e-01
1.692777990064959770e-01
1.692777990064959770e-01
1.639281620175773724e-01
1.639281620175773724e-01
1.639281620175773724e-01
1.669850974398165711e-01
1.669850974398165711e-01
1.593427588842185605e-01
1.593427588842185605e-01
1.593427588842185605e-01
1.620175773786778628e-01
1.620175773786778628e-01
1.738632021398547889e-01
1.738632021398547889e-01
1.738632021398547889e-01
1.631639281620175796e-01
1.631639281620175796e-01
1.574321742453190787e-01
1.574321742453190787e-01
1.574321742453190787e-01
1.551394726786396727e-01
1.551394726786396727e-01
1.559037065341994654e-01
1.559037065341994654e-01
1.559037065341994654e-01
1.654566297286969856e-01
1.654566297286969856e-01
1.723347344287352034e-01
1.723347344287352034e-01
1.723347344287352034e-01
1.669850974398165711e-01
1.669850974398165711e-01
1.631639281620175796e-01
1.631639281620175796e-01
1.631639281620175796e-01
1.520825372564004463e-01
1.520825372564004463e-01
1.532288880397401631e-01
1.532288880397401631e-01
1.532288880397401631e-01
1.547573557508597764e-01
1.547573557508597764e-01
1.639281620175773724e-01
1.639281620175773724e-01
1.639281620175773724e-01
1.666029805120366747e-01
1.666029805120366747e-01
1.566679403897592582e-01
1.566679403897592582e-01
1.566679403897592582e-01
1.578142911730989750e-01
1.578142911730989750e-01
1.501719526175009645e-01
1.501719526175009645e-01
1.501719526175009645e-01
1.570500573175391545e-01
1.570500573175391545e-01
1.719526175009552793e-01
1.719526175009552793e-01
1.719526175009552793e-01
1.662208635842567783e-01
1.662208635842567783e-01
1.704241497898356938e-01
1.704241497898356938e-01
1.704241497898356938e-01
1.581964081008788714e-01
1.581964081008788714e-01
1.513183034008406536e-01
1.513183034008406536e-01
1.513183034008406536e-01
1.570500573175391545e-01
1.570500573175391545e-01
1.631639281620175796e-01
1.631639281620175796e-01
1.631639281620175796e-01
1.585785250286587678e-01
1.585785250286587678e-01
1.559037065341994654e-01
1.559037065341994654e-01
1.559037065341994654e-01
1.677493312953763915e-01
1.677493312953763915e-01
1.543752388230798522e-01
1.543752388230798522e-01
1.543752388230798522e-01
1.646923958731371929e-01
1.646923958731371929e-01
1.593427588842185605e-01
1.593427588842185605e-01
1.593427588842185605e-01
1.555215896064195691e-01
1.555215896064195691e-01
1.643102789453572687e-01
1.643102789453572687e-01
1.643102789453572687e-01
1.650745128009170892e-01
1.650745128009170892e-01
1.597248758119984846e-01
1.597248758119984846e-01
1.597248758119984846e-01
1.669850974398165711e-01
1.669850974398165711e-01
1.627818112342376833e-01
1.627818112342376833e-01
1.627818112342376833e-01
1.459686664119220489e-01
1.459686664119220489e-01
1.559037065341994654e-01
1.559037065341994654e-01
1.559037065341994654e-01
1.513183034008406536e-01
1.513183034008406536e-01
1.612533435231180701e-01
1.612533435231180701e-01
1.612533435231180701e-01
1.532288880397401631e-01
1.532288880397401631e-01
1.589606419564386641e-01
1.589606419564386641e-01
1.589606419564386641e-01
1.574321742453190787e-01
1.574321742453190787e-01
1.459686664119220489e-01
1.459686664119220489e-01
1.459686664119220489e-01
1.631639281620175796e-01
1.631639281620175796e-01
1.444401987008024357e-01
1.444401987008024357e-01
1.536110049675200595e-01
1.536110049675200595e-01
1.536110049675200595e-01
1.551394726786396727e-01
1.551394726786396727e-01
1.589606419564386641e-01
1.589606419564386641e-01
1.589606419564386641e-01
1.448223156285823598e-01
1.448223156285823598e-01
1.543752388230798522e-01
1.543752388230798522e-01
1.543752388230798522e-01
1.501719526175009645e-01
1.501719526175009645e-01
1.581964081008788714e-01
1.581964081008788714e-01
1.581964081008788714e-01
1.482613679786014549e-01
1.482613679786014549e-01
1.505540695452808608e-01
1.505540695452808608e-01
1.505540695452808608e-01
1.566679403897592582e-01
1.566679403897592582e-01
1.601069927397783810e-01
1.601069927397783810e-01
1.601069927397783810e-01
1.440580817730225394e-01
1.440580817730225394e-01
1.490256018341612476e-01
1.490256018341612476e-01
1.490256018341612476e-01
1.413832632785632371e-01
1.413832632785632371e-01
1.547573557508597764e-01
1.547573557508597764e-01
1.547573557508597764e-01
1.551394726786396727e-01
1.551394726786396727e-01
1.517004203286205499e-01
1.517004203286205499e-01
1.517004203286205499e-01
1.570500573175391545e-01
1.570500573175391545e-01
1.570500573175391545e-01
1.570500573175391545e-01
1.570500573175391545e-01
1.387084447841039347e-01
1.387084447841039347e-01
1.432938479174627466e-01
1.432938479174627466e-01
1.432938479174627466e-01
1.383263278563240384e-01
1.383263278563240384e-01
1.478792510508215585e-01
1.478792510508215585e-01
1.478792510508215585e-01
1.517004203286205499e-01
1.517004203286205499e-01
1.539931218952999559e-01
1.539931218952999559e-01
1.539931218952999559e-01
1.566679403897592582e-01
1.566679403897592582e-01
1.517004203286205499e-01
1.517004203286205499e-01
1.517004203286205499e-01
1.459686664119220489e-01
1.459686664119220489e-01
1.482613679786014549e-01
1.482613679786014549e-01
1.482613679786014549e-01
1.513183034008406536e-01
1.513183034008406536e-01
1.455865494841421526e-01
1.455865494841421526e-01
1.455865494841421526e-01
1.604891096675582773e-01
1.604891096675582773e-01
1.547573557508597764e-01
1.547573557508597764e-01
1.547573557508597764e-01
1.585785250286587678e-01
1.585785250286587678e-01
1.566679403897592582e-01
1.566679403897592582e-01
1.566679403897592582e-01
1.459686664119220489e-01
1.459686664119220489e-01
1.570500573175391545e-01
1.570500573175391545e-01
1.570500573175391545e-01
1.566679403897592582e-01
1.566679403897592582e-01
1.585785250286587678e-01
1.585785250286587678e-01
1.585785250286587678e-01
1.757737867787542985e-01
1.757737867787542985e-01
1.654566297286969856e-01
1.654566297286969856e-01
1.654566297286969856e-01
1.807413068398930067e-01
1.807413068398930067e-01
1.757737867787542985e-01
1.757737867787542985e-01
1.757737867787542985e-01
1.895299961788307341e-01
1.895299961788307341e-01
1.872372946121513282e-01
1.872372946121513282e-01
1.872372946121513282e-01
1.914405808177302160e-01
1.914405808177302160e-01
1.868551776843714041e-01
1.868551776843714041e-01
1.868551776843714041e-01
2.090179594956056430e-01
2.090179594956056430e-01
2.143675964845242754e-01
2.143675964845242754e-01
2.143675964845242754e-01
2.082537256400458503e-01
2.082537256400458503e-01
2.231562858234619751e-01
2.231562858234619751e-01
2.231562858234619751e-01
2.292701566679404002e-01
2.292701566679404002e-01
2.288880397401604760e-01
2.288880397401604760e-01
2.288880397401604760e-01
2.422621322124570153e-01
2.422621322124570153e-01
2.437905999235766008e-01
2.437905999235766008e-01
2.437905999235766008e-01
2.667176155903706603e-01
2.667176155903706603e-01
2.525792892625143282e-01
2.525792892625143282e-01
2.525792892625143282e-01
2.648070309514711229e-01
2.648070309514711229e-01
2.812380588460068886e-01
2.812380588460068886e-01
2.812380588460068886e-01
2.827665265571264741e-01
2.827665265571264741e-01
2.862055789071455969e-01
2.862055789071455969e-01
2.862055789071455969e-01
2.949942682460833243e-01
2.949942682460833243e-01
2.965227359572029098e-01
2.965227359572029098e-01
2.965227359572029098e-01
3.083683607183798081e-01
3.083683607183798081e-01
3.121895299961788273e-01
3.121895299961788273e-01
3.121895299961788273e-01
3.133358807795185164e-01
3.133358807795185164e-01
3.228888039740160365e-01
3.228888039740160365e-01
3.228888039740160365e-01
3.251815055406954702e-01
3.251815055406954702e-01
3.278563240351547448e-01
3.278563240351547448e-01
3.278563240351547448e-01
3.374092472296522649e-01
3.374092472296522649e-01
3.427588842185708695e-01
3.427588842185708695e-01
3.427588842185708695e-01
3.400840657241115950e-01
3.400840657241115950e-01
3.488727550630492669e-01
3.488727550630492669e-01
3.488727550630492669e-01
3.454337027130301996e-01
3.454337027130301996e-01
3.580435613297668906e-01
3.580435613297668906e-01
3.580435613297668906e-01
3.553687428353076161e-01
3.553687428353076161e-01
3.511654566297287006e-01
3.511654566297287006e-01
3.511654566297287006e-01
3.645395491020252399e-01
3.645395491020252399e-01
3.599541459686664280e-01
3.599541459686664280e-01
3.599541459686664280e-01
3.714176538020634299e-01
3.714176538020634299e-01
3.687428353076040999e-01
3.687428353076040999e-01
3.687428353076040999e-01
3.737103553687428081e-01
3.737103553687428081e-01
3.687428353076040999e-01
3.687428353076040999e-01
3.717997707298433263e-01
3.717997707298433263e-01
3.717997707298433263e-01
3.752388230798624491e-01
3.752388230798624491e-01
3.756209400076423455e-01
3.756209400076423455e-01
3.756209400076423455e-01
3.714176538020634299e-01
3.714176538020634299e-01
3.744745892243026564e-01
3.744745892243026564e-01
3.744745892243026564e-01
3.775315246465418273e-01
3.775315246465418273e-01
3.748567061520825527e-01
3.748567061520825527e-01
3.748567061520825527e-01
3.847917462743599692e-01
3.847917462743599692e-01
3.786778754298815164e-01
3.786778754298815164e-01
3.786778754298815164e-01
3.844096293465800729e-01
3.844096293465800729e-01
3.824990447076805355e-01
3.824990447076805355e-01
3.824990447076805355e-01
3.725640045854031190e-01
3.725640045854031190e-01
3.805884600687810537e-01
3.805884600687810537e-01
3.805884600687810537e-01
3.855559801299197620e-01
3.855559801299197620e-01
3.897592663354986775e-01
3.897592663354986775e-01
3.897592663354986775e-01
3.725640045854031190e-01
3.725640045854031190e-01
3.775315246465418273e-01
3.775315246465418273e-01
3.775315246465418273e-01
3.802063431410011574e-01
3.802063431410011574e-01
3.805884600687810537e-01
3.805884600687810537e-01
3.805884600687810537e-01
3.702713030187237409e-01
3.702713030187237409e-01
3.760030569354222418e-01
3.760030569354222418e-01
3.760030569354222418e-01
3.813526939243408465e-01
3.813526939243408465e-01
3.695070691631639481e-01
3.695070691631639481e-01
3.695070691631639481e-01
3.729461215131830154e-01
3.729461215131830154e-01
3.729461215131830154e-01
3.729461215131830154e-01
3.729461215131830154e-01
3.656858998853649290e-01
3.656858998853649290e-01
3.748567061520825527e-01
3.748567061520825527e-01
3.748567061520825527e-01
3.656858998853649290e-01
3.656858998853649290e-01
3.664501337409247217e-01
3.664501337409247217e-01
3.664501337409247217e-01
3.607183798242262207e-01
3.607183798242262207e-01
3.691249522353840518e-01
3.691249522353840518e-01
3.691249522353840518e-01
3.672143675964845144e-01
3.672143675964845144e-01
3.614826136797860134e-01
3.614826136797860134e-01
3.614826136797860134e-01
3.660680168131448253e-01
3.660680168131448253e-01
3.630110813909055989e-01
3.630110813909055989e-01
3.630110813909055989e-01
3.568972105464272015e-01
3.568972105464272015e-01
3.507833397019488042e-01
3.507833397019488042e-01
3.507833397019488042e-01
3.519296904852884933e-01
3.519296904852884933e-01
3.549866259075277197e-01
3.549866259075277197e-01
3.549866259075277197e-01
3.477264042797095778e-01
3.477264042797095778e-01
3.481085212074894741e-01
3.481085212074894741e-01
3.481085212074894741e-01
3.461979365685899923e-01
3.461979365685899923e-01
3.477264042797095778e-01
3.477264042797095778e-01
3.477264042797095778e-01
3.473442873519296814e-01
3.473442873519296814e-01
3.366450133740924722e-01
3.366450133740924722e-01
3.366450133740924722e-01
3.370271303018723685e-01
3.370271303018723685e-01
3.450515857852503032e-01
3.450515857852503032e-01
3.450515857852503032e-01
3.339701948796331421e-01
3.339701948796331421e-01
3.404661826518914913e-01
3.404661826518914913e-01
3.404661826518914913e-01
3.400840657241115950e-01
3.400840657241115950e-01
3.209782193351165547e-01
3.209782193351165547e-01
3.209782193351165547e-01
3.309132594573939712e-01
3.309132594573939712e-01
3.309132594573939712e-01
3.309132594573939712e-01
3.309132594573939712e-01
3.251815055406954702e-01
3.251815055406954702e-01
3.148643484906381573e-01
3.148643484906381573e-01
3.148643484906381573e-01
3.194497516239969692e-01
3.194497516239969692e-01
3.240351547573557256e-01
3.240351547573557256e-01
3.240351547573557256e-01
3.148643484906381573e-01
3.148643484906381573e-01
3.060756591517004299e-01
3.060756591517004299e-01
3.060756591517004299e-01
2.999617883072220326e-01
2.999617883072220326e-01
2.934658005349636833e-01
2.934658005349636833e-01
2.934658005349636833e-01
2.995796713794421362e-01
2.995796713794421362e-01
2.877340466182651824e-01
2.877340466182651824e-01
2.877340466182651824e-01
2.900267481849446161e-01
2.900267481849446161e-01
2.839128773404661632e-01
2.839128773404661632e-01
2.839128773404661632e-01
2.865876958349254933e-01
2.865876958349254933e-01
2.732136033626289540e-01
2.732136033626289540e-01
2.732136033626289540e-01
2.854413450515858042e-01
2.854413450515858042e-01
2.781811234237676622e-01
2.781811234237676622e-01
2.781811234237676622e-01
2.739778372181887467e-01
2.739778372181887467e-01
2.785632403515475586e-01
2.785632403515475586e-01
2.785632403515475586e-01
2.716851356515093685e-01
2.716851356515093685e-01
2.693924340848299348e-01
2.693924340848299348e-01
2.693924340848299348e-01
2.575468093236530365e-01
2.575468093236530365e-01
2.602216278181123665e-01
2.602216278181123665e-01
2.602216278181123665e-01
2.533435231180741209e-01
2.533435231180741209e-01
2.514329384791746391e-01
2.514329384791746391e-01
2.514329384791746391e-01
2.617500955292319520e-01
2.617500955292319520e-01
2.502865876958349500e-01
2.502865876958349500e-01
2.502865876958349500e-01
2.583110431792128292e-01
2.583110431792128292e-01
2.537256400458540173e-01
2.537256400458540173e-01
2.499044707680550259e-01
2.499044707680550259e-01
2.499044707680550259e-01
2.479938861291555163e-01
2.479938861291555163e-01
2.468475353458158272e-01
2.468475353458158272e-01
2.468475353458158272e-01
2.537256400458540173e-01
2.537256400458540173e-01
2.529614061902942246e-01
2.529614061902942246e-01
2.529614061902942246e-01
2.460833014902560067e-01
2.460833014902560067e-01
2.418800152846771190e-01
2.418800152846771190e-01
2.418800152846771190e-01
2.403515475735575058e-01
2.403515475735575058e-01
2.441727168513565249e-01
2.441727168513565249e-01
2.441727168513565249e-01
2.449369507069163177e-01
2.449369507069163177e-01
2.395873137179977130e-01
2.395873137179977130e-01
2.395873137179977130e-01
2.392051967902178167e-01
2.392051967902178167e-01
2.319449751623997025e-01
2.319449751623997025e-01
2.319449751623997025e-01
2.346197936568590048e-01
2.346197936568590048e-01
2.491402369124952332e-01
2.491402369124952332e-01
2.491402369124952332e-01
2.300343905235001929e-01
2.300343905235001929e-01
2.292701566679404002e-01
2.292701566679404002e-01
2.292701566679404002e-01
2.407336645013374021e-01
2.407336645013374021e-01
2.323270920901795988e-01
2.323270920901795988e-01
2.323270920901795988e-01
2.403515475735575058e-01
2.403515475735575058e-01
2.414978983568972226e-01
2.414978983568972226e-01
2.414978983568972226e-01
2.464654184180359309e-01
2.464654184180359309e-01
2.307986243790599856e-01
2.307986243790599856e-01
2.307986243790599856e-01
2.330913259457393916e-01
2.330913259457393916e-01
2.380588460068780998e-01
2.380588460068780998e-01
2.380588460068780998e-01
2.346197936568590048e-01
2.346197936568590048e-01
2.414978983568972226e-01
2.414978983568972226e-01
2.414978983568972226e-01
2.365303782957585144e-01
2.365303782957585144e-01
2.281238058846006833e-01
2.281238058846006833e-01
2.281238058846006833e-01
2.441727168513565249e-01
2.441727168513565249e-01
2.265953381734810979e-01
2.265953381734810979e-01
2.265953381734810979e-01
2.426442491402369117e-01
2.426442491402369117e-01
2.327092090179594952e-01
2.327092090179594952e-01
2.327092090179594952e-01
2.357661444401986939e-01
2.357661444401986939e-01
2.445548337791364213e-01
2.445548337791364213e-01
2.445548337791364213e-01
2.418800152846771190e-01
2.418800152846771190e-01
2.304165074512800893e-01
2.304165074512800893e-01
2.304165074512800893e-01
2.376767290790982035e-01
2.376767290790982035e-01
2.327092090179594952e-01
2.327092090179594952e-01
2.327092090179594952e-01
2.292701566679404002e-01
2.292701566679404002e-01
2.353840275124187975e-01
2.353840275124187975e-01
2.353840275124187975e-01
2.411157814291172985e-01
2.411157814291172985e-01
2.300343905235001929e-01
2.300343905235001929e-01
2.300343905235001929e-01
2.243026366068016919e-01
2.243026366068016919e-01
2.346197936568590048e-01
2.346197936568590048e-01
2.346197936568590048e-01
2.239205196790217678e-01
2.239205196790217678e-01
2.338555598012991843e-01
2.338555598012991843e-01
2.338555598012991843e-01
2.330913259457393916e-01
2.330913259457393916e-01
2.262132212457011737e-01
2.262132212457011737e-01
2.262132212457011737e-01
2.204814673290026728e-01
2.204814673290026728e-01
2.307986243790599856e-01
2.307986243790599856e-01
2.307986243790599856e-01
2.285059228123805797e-01
2.285059228123805797e-01
2.143675964845242754e-01
2.143675964845242754e-01
2.143675964845242754e-01
2.151318303400840681e-01
2.151318303400840681e-01
2.170424149789835777e-01
2.170424149789835777e-01
2.170424149789835777e-01
2.189529996178830595e-01
2.189529996178830595e-01
2.200993504012227764e-01
2.200993504012227764e-01
2.200993504012227764e-01
2.197172334734428800e-01
2.197172334734428800e-01
2.200993504012227764e-01
2.200993504012227764e-01
2.200993504012227764e-01
2.193351165456629837e-01
2.193351165456629837e-01
2.158960641956438609e-01
2.158960641956438609e-01
2.158960641956438609e-01
2.116927779900649731e-01
2.116927779900649731e-01
2.220099350401222860e-01
2.220099350401222860e-01
2.220099350401222860e-01
2.227741688956820787e-01
2.227741688956820787e-01
2.124570118456247658e-01
2.124570118456247658e-01
2.124570118456247658e-01
2.158960641956438609e-01
2.158960641956438609e-01
2.212457011845624655e-01
2.212457011845624655e-01
2.212457011845624655e-01
2.162781811234237572e-01
2.162781811234237572e-01
2.074894917844860576e-01
2.074894917844860576e-01
2.074894917844860576e-01
2.116927779900649731e-01
2.116927779900649731e-01
2.132212457011845586e-01
2.132212457011845586e-01
2.132212457011845586e-01
2.139854795567443513e-01
2.139854795567443513e-01
1.960259839510890278e-01
1.960259839510890278e-01
1.960259839510890278e-01
2.155139472678639645e-01
2.155139472678639645e-01
2.006113870844478397e-01
2.006113870844478397e-01
2.006113870844478397e-01
2.017577378677875566e-01
2.017577378677875566e-01
1.990829193733282265e-01
1.990829193733282265e-01
1.990829193733282265e-01
2.021398547955674529e-01
2.021398547955674529e-01
2.082537256400458503e-01
2.082537256400458503e-01
2.082537256400458503e-01
2.013756209400076325e-01
2.013756209400076325e-01
2.067252579289262648e-01
2.067252579289262648e-01
1.998471532288880470e-01
1.998471532288880470e-01
1.998471532288880470e-01
2.074894917844860576e-01
2.074894917844860576e-01
1.956438670233091315e-01
1.956438670233091315e-01
1.956438670233091315e-01
1.933511654566297255e-01
1.933511654566297255e-01
2.048146732900267553e-01
2.048146732900267553e-01
2.048146732900267553e-01
1.998471532288880470e-01
1.998471532288880470e-01
2.040504394344669348e-01
2.040504394344669348e-01
2.040504394344669348e-01
1.864730607565915077e-01
1.864730607565915077e-01
1.902942300343905269e-01
1.902942300343905269e-01
1.902942300343905269e-01
1.891478792510508100e-01
1.891478792510508100e-01
1.914405808177302160e-01
1.914405808177302160e-01
1.914405808177302160e-01
1.960259839510890278e-01
1.960259839510890278e-01
1.826518914787925163e-01
1.826518914787925163e-01
1.826518914787925163e-01
1.929690485288498292e-01
1.929690485288498292e-01
1.887657623232709136e-01
1.887657623232709136e-01
1.887657623232709136e-01
1.792128391287733935e-01
1.792128391287733935e-01
1.868551776843714041e-01
1.868551776843714041e-01
1.868551776843714041e-01
1.960259839510890278e-01
1.960259839510890278e-01
1.960259839510890278e-01
1.960259839510890278e-01
1.960259839510890278e-01
1.864730607565915077e-01
1.864730607565915077e-01
1.925869316010699328e-01
1.925869316010699328e-01
1.925869316010699328e-01
1.902942300343905269e-01
1.902942300343905269e-01
1.799770729843332140e-01
1.799770729843332140e-01
1.799770729843332140e-01
1.887657623232709136e-01
1.887657623232709136e-01
1.860909438288116113e-01
1.860909438288116113e-01
1.860909438288116113e-01
1.845624761176920259e-01
1.845624761176920259e-01
1.857088269010317150e-01
1.857088269010317150e-01
1.857088269010317150e-01
1.761559037065341948e-01
1.761559037065341948e-01
1.876194115399312246e-01
1.876194115399312246e-01
1.876194115399312246e-01
1.765380206343140912e-01
1.765380206343140912e-01
1.876194115399312246e-01
1.876194115399312246e-01
1.876194115399312246e-01
1.784486052732136008e-01
1.784486052732136008e-01
1.853267099732518186e-01
1.853267099732518186e-01
1.853267099732518186e-01
1.776843714176538080e-01
1.776843714176538080e-01
1.834161253343523090e-01
1.834161253343523090e-01
1.834161253343523090e-01
1.719526175009552793e-01
1.719526175009552793e-01
1.841803591899121018e-01
1.841803591899121018e-01
1.841803591899121018e-01
1.807413068398930067e-01
1.807413068398930067e-01
1.773022544898739117e-01
1.773022544898739117e-01
1.773022544898739117e-01
1.711883836453954866e-01
1.711883836453954866e-01
1.765380206343140912e-01
1.765380206343140912e-01
1.765380206343140912e-01
1.773022544898739117e-01
1.773022544898739117e-01
1.738632021398547889e-01
1.738632021398547889e-01
1.738632021398547889e-01
1.803591899121131104e-01
1.803591899121131104e-01
1.795949560565533176e-01
1.795949560565533176e-01
1.795949560565533176e-01
1.666029805120366747e-01
1.666029805120366747e-01
1.727168513565150998e-01
1.727168513565150998e-01
1.727168513565150998e-01
1.742453190676346853e-01
1.742453190676346853e-01
1.723347344287352034e-01
1.723347344287352034e-01
1.723347344287352034e-01
1.784486052732136008e-01
1.784486052732136008e-01
1.799770729843332140e-01
1.799770729843332140e-01
1.799770729843332140e-01
1.646923958731371929e-01
1.646923958731371929e-01
1.750095529231945057e-01
1.750095529231945057e-01
1.750095529231945057e-01
1.750095529231945057e-01
1.750095529231945057e-01
1.757737867787542985e-01
1.757737867787542985e-01
1.757737867787542985e-01
1.738632021398547889e-01
1.738632021398547889e-01
1.711883836453954866e-01
1.711883836453954866e-01
1.711883836453954866e-01
1.738632021398547889e-01
1.738632021398547889e-01
1.792128391287733935e-01
1.792128391287733935e-01
1.792128391287733935e-01
1.765380206343140912e-01
1.765380206343140912e-01
1.711883836453954866e-01
1.711883836453954866e-01
1.711883836453954866e-01
1.608712265953381737e-01
1.608712265953381737e-01
1.639281620175773724e-01
1.639281620175773724e-01
1.639281620175773724e-01
1.601069927397783810e-01
1.601069927397783810e-01
1.708062667176155902e-01
1.708062667176155902e-01
1.708062667176155902e-01
1.688956820787160806e-01
1.688956820787160806e-01
1.673672143675964952e-01
1.673672143675964952e-01
1.673672143675964952e-01
1.727168513565150998e-01
1.727168513565150998e-01
1.700420328620557975e-01
1.700420328620557975e-01
1.700420328620557975e-01
1.776843714176538080e-01
1.776843714176538080e-01
1.631639281620175796e-01
1.631639281620175796e-01
1.631639281620175796e-01
1.696599159342759011e-01
1.696599159342759011e-01
1.769201375620939876e-01
1.769201375620939876e-01
1.769201375620939876e-01
1.700420328620557975e-01
1.700420328620557975e-01
1.727168513565150998e-01
1.727168513565150998e-01
1.727168513565150998e-01
1.685135651509361843e-01
1.685135651509361843e-01
1.708062667176155902e-01
1.708062667176155902e-01
1.708062667176155902e-01
1.643102789453572687e-01
1.643102789453572687e-01
1.696599159342759011e-01
1.696599159342759011e-01
1.696599159342759011e-01
1.623996943064577869e-01
1.623996943064577869e-01
1.773022544898739117e-01
1.773022544898739117e-01
1.773022544898739117e-01
1.681314482231562879e-01
1.681314482231562879e-01
1.753916698509744021e-01
1.753916698509744021e-01
1.773022544898739117e-01
1.773022544898739117e-01
1.773022544898739117e-01
1.730989682842949962e-01
1.730989682842949962e-01
1.734810852120748925e-01
1.734810852120748925e-01
1.734810852120748925e-01
1.616354604508979664e-01
1.616354604508979664e-01
1.719526175009552793e-01
1.719526175009552793e-01
1.719526175009552793e-01
1.769201375620939876e-01
1.769201375620939876e-01
1.631639281620175796e-01
1.631639281620175796e-01
1.631639281620175796e-01
1.692777990064959770e-01
1.692777990064959770e-01
1.704241497898356938e-01
1.704241497898356938e-01
1.704241497898356938e-01
1.692777990064959770e-01
1.692777990064959770e-01
1.669850974398165711e-01
1.669850974398165711e-01
1.669850974398165711e-01
1.551394726786396727e-01
1.551394726786396727e-01
1.581964081008788714e-01
1.581964081008788714e-01
1.581964081008788714e-01
1.635460450897974760e-01
1.635460450897974760e-01
1.604891096675582773e-01
1.604891096675582773e-01
1.604891096675582773e-01
1.627818112342376833e-01
1.627818112342376833e-01
1.627818112342376833e-01
1.627818112342376833e-01
1.627818112342376833e-01
1.639281620175773724e-01
1.639281620175773724e-01
1.543752388230798522e-01
1.543752388230798522e-01
1.543752388230798522e-01
1.681314482231562879e-01
1.681314482231562879e-01
1.578142911730989750e-01
1.578142911730989750e-01
1.578142911730989750e-01
1.524646541841803704e-01
1.524646541841803704e-01
1.681314482231562879e-01
1.681314482231562879e-01
1.681314482231562879e-01
1.627818112342376833e-01
1.627818112342376833e-01
1.581964081008788714e-01
1.581964081008788714e-01
1.581964081008788714e-01
1.551394726786396727e-01
1.551394726786396727e-01
1.635460450897974760e-01
1.635460450897974760e-01
1.635460450897974760e-01
1.646923958731371929e-01
1.646923958731371929e-01
1.608712265953381737e-01
1.608712265953381737e-01
1.608712265953381737e-01
1.681314482231562879e-01
1.681314482231562879e-01
1.585785250286587678e-01
1.585785250286587678e-01
1.585785250286587678e-01
1.547573557508597764e-01
1.547573557508597764e-01
1.578142911730989750e-01
1.578142911730989750e-01
1.578142911730989750e-01
1.650745128009170892e-01
1.650745128009170892e-01
1.539931218952999559e-01
1.539931218952999559e-01
1.539931218952999559e-01
1.486434849063813513e-01
1.486434849063813513e-01
1.589606419564386641e-01
1.589606419564386641e-01
1.589606419564386641e-01
1.551394726786396727e-01
1.551394726786396727e-01
1.635460450897974760e-01
1.635460450897974760e-01
1.635460450897974760e-01
1.566679403897592582e-01
1.566679403897592582e-01
1.593427588842185605e-01
1.593427588842185605e-01
1.593427588842185605e-01
1.524646541841803704e-01
1.524646541841803704e-01
1.604891096675582773e-01
1.604891096675582773e-01
1.604891096675582773e-01
1.551394726786396727e-01
1.551394726786396727e-01
1.688956820787160806e-01
1.688956820787160806e-01
1.688956820787160806e-01
1.704241497898356938e-01
1.704241497898356938e-01
1.727168513565150998e-01
1.727168513565150998e-01
1.727168513565150998e-01
1.654566297286969856e-01
1.654566297286969856e-01
1.711883836453954866e-01
1.711883836453954866e-01
1.711883836453954866e-01
1.818876576232326958e-01
1.818876576232326958e-01
1.792128391287733935e-01
1.792128391287733935e-01
1.792128391287733935e-01
1.818876576232326958e-01
1.818876576232326958e-01
1.857088269010317150e-01
1.857088269010317150e-01
1.857088269010317150e-01
1.895299961788307341e-01
1.895299961788307341e-01
1.960259839510890278e-01
1.960259839510890278e-01
1.960259839510890278e-01
2.017577378677875566e-01
2.017577378677875566e-01
2.101643102789453599e-01
2.101643102789453599e-01
2.101643102789453599e-01
2.128391287734046622e-01
2.128391287734046622e-01
2.197172334734428800e-01
2.197172334734428800e-01
2.197172334734428800e-01
2.166602980512036813e-01
2.166602980512036813e-01
2.342376767290791084e-01
2.342376767290791084e-01
2.342376767290791084e-01
2.418800152846771190e-01
2.418800152846771190e-01
2.499044707680550259e-01
2.499044707680550259e-01
2.499044707680550259e-01
2.529614061902942246e-01
2.529614061902942246e-01
2.674818494459304530e-01
2.674818494459304530e-01
2.674818494459304530e-01
2.720672525792892649e-01
2.720672525792892649e-01
2.762705387848681804e-01
2.762705387848681804e-01
2.762705387848681804e-01
2.747420710737485394e-01
2.747420710737485394e-01
2.854413450515858042e-01
2.854413450515858042e-01
2.854413450515858042e-01
2.961406190294230134e-01
2.961406190294230134e-01
3.041650745128008926e-01
3.041650745128008926e-01
3.041650745128008926e-01
3.030187237294612035e-01
3.030187237294612035e-01
3.098968284294994491e-01
3.098968284294994491e-01
3.098968284294994491e-01
3.251815055406954702e-01
3.251815055406954702e-01
3.167749331295376392e-01
3.167749331295376392e-01
3.167749331295376392e-01
3.217424531906763474e-01
3.217424531906763474e-01
3.328238440962934530e-01
3.328238440962934530e-01
3.328238440962934530e-01
3.324417271685135566e-01
3.324417271685135566e-01
3.477264042797095778e-01
3.477264042797095778e-01
3.477264042797095778e-01
3.370271303018723685e-01
3.370271303018723685e-01
3.519296904852884933e-01
3.519296904852884933e-01
3.565150936186473052e-01
3.565150936186473052e-01
3.565150936186473052e-01
3.603362628964463243e-01
3.603362628964463243e-01
3.568972105464272015e-01
3.568972105464272015e-01
3.568972105464272015e-01
3.614826136797860134e-01
3.614826136797860134e-01
3.748567061520825527e-01
3.748567061520825527e-01
3.748567061520825527e-01
3.740924722965227600e-01
3.740924722965227600e-01
3.752388230798624491e-01
3.752388230798624491e-01
3.752388230798624491e-01
3.809705769965609501e-01
3.809705769965609501e-01
3.832632785632403283e-01
3.832632785632403283e-01
3.832632785632403283e-01
3.821169277799006392e-01
3.821169277799006392e-01
3.847917462743599692e-01
3.847917462743599692e-01
3.847917462743599692e-01
3.782957585021016200e-01
3.782957585021016200e-01
3.939625525410775930e-01
3.939625525410775930e-01
3.939625525410775930e-01
3.909056171188383666e-01
3.909056171188383666e-01
3.859380970576996583e-01
3.859380970576996583e-01
3.859380970576996583e-01
4.000764233855559904e-01
4.000764233855559904e-01
3.962552541077569712e-01
3.962552541077569712e-01
3.962552541077569712e-01
3.928162017577378484e-01
3.928162017577378484e-01
4.004585403133358867e-01
4.004585403133358867e-01
4.004585403133358867e-01
3.935804356132976967e-01
3.935804356132976967e-01
3.951089033244172821e-01
3.951089033244172821e-01
3.951089033244172821e-01
3.977837218188765567e-01
3.977837218188765567e-01
3.947267863966373858e-01
3.947267863966373858e-01
3.947267863966373858e-01
4.027512418800152649e-01
4.027512418800152649e-01
4.031333588077951613e-01
4.031333588077951613e-01
4.031333588077951613e-01
3.993121895299961976e-01
3.993121895299961976e-01
4.061902942300343877e-01
4.061902942300343877e-01
4.061902942300343877e-01
3.935804356132976967e-01
3.935804356132976967e-01
4.027512418800152649e-01
4.027512418800152649e-01
4.027512418800152649e-01
4.042797095911349059e-01
4.042797095911349059e-01
3.985479556744364049e-01
3.985479556744364049e-01
3.985479556744364049e-01
3.947267863966373858e-01
3.947267863966373858e-01
3.897592663354986775e-01
3.897592663354986775e-01
3.897592663354986775e-01
4.046618265189148023e-01
4.046618265189148023e-01
3.916698509743981593e-01
3.916698509743981593e-01
3.916698509743981593e-01
3.954910202521971785e-01
3.954910202521971785e-01
3.962552541077569712e-01
3.962552541077569712e-01
3.962552541077569712e-01
4.073366450133740768e-01
4.073366450133740768e-01
3.916698509743981593e-01
3.916698509743981593e-01
3.916698509743981593e-01
3.886129155521589329e-01
3.886129155521589329e-01
3.859380970576996583e-01
3.859380970576996583e-01
3.859380970576996583e-01
3.897592663354986775e-01
3.897592663354986775e-01
3.909056171188383666e-01
3.909056171188383666e-01
3.909056171188383666e-01
3.886129155521589329e-01
3.886129155521589329e-01
3.828811616354604319e-01
3.828811616354604319e-01
3.828811616354604319e-01
3.886129155521589329e-01
3.886129155521589329e-01
3.889950324799388848e-01
3.889950324799388848e-01
3.889950324799388848e-01
3.847917462743599692e-01
3.847917462743599692e-01
3.889950324799388848e-01
3.889950324799388848e-01
3.889950324799388848e-01
3.832632785632403283e-01
3.832632785632403283e-01
3.832632785632403283e-01
3.832632785632403283e-01
3.832632785632403283e-01
3.851738632021398656e-01
3.851738632021398656e-01
3.756209400076423455e-01
3.756209400076423455e-01
3.756209400076423455e-01
3.744745892243026564e-01
3.744745892243026564e-01
3.782957585021016200e-01
3.782957585021016200e-01
3.782957585021016200e-01
3.763851738632021382e-01
3.763851738632021382e-01
3.695070691631639481e-01
3.695070691631639481e-01
3.695070691631639481e-01
3.737103553687428081e-01
3.737103553687428081e-01
3.706534199465036372e-01
3.706534199465036372e-01
3.706534199465036372e-01
3.595720290408865316e-01
3.595720290408865316e-01
3.653037829575850326e-01
3.653037829575850326e-01
3.653037829575850326e-01
3.614826136797860134e-01
3.614826136797860134e-01
3.553687428353076161e-01
3.553687428353076161e-01
3.553687428353076161e-01
3.614826136797860134e-01
3.614826136797860134e-01
3.568972105464272015e-01
3.568972105464272015e-01
3.568972105464272015e-01
3.553687428353076161e-01
3.553687428353076161e-01
3.484906381352693705e-01
3.484906381352693705e-01
3.484906381352693705e-01
3.435231180741306622e-01
3.435231180741306622e-01
3.435231180741306622e-01
3.435231180741306622e-01
3.435231180741306622e-01
3.377913641574321613e-01
3.377913641574321613e-01
3.377913641574321613e-01
3.377913641574321613e-01
3.377913641574321613e-01
3.400840657241115950e-01
3.400840657241115950e-01
3.377913641574321613e-01
3.377913641574321613e-01
3.377913641574321613e-01
3.255636224684753666e-01
3.255636224684753666e-01
3.259457393962552629e-01
3.259457393962552629e-01
3.259457393962552629e-01
3.163928162017577428e-01
3.163928162017577428e-01
3.209782193351165547e-01
3.209782193351165547e-01
3.209782193351165547e-01
3.095147115017195527e-01
3.095147115017195527e-01
3.087504776461597045e-01
3.087504776461597045e-01
3.087504776461597045e-01
3.026366068016813071e-01
3.026366068016813071e-01
3.098968284294994491e-01
3.098968284294994491e-01
3.098968284294994491e-01
3.022544898739014108e-01
3.022544898739014108e-01
3.041650745128008926e-01
3.041650745128008926e-01
3.034008406572410999e-01
3.034008406572410999e-01
3.034008406572410999e-01
2.923194497516239942e-01
2.923194497516239942e-01
2.972869698127627025e-01
2.972869698127627025e-01
2.972869698127627025e-01
2.785632403515475586e-01
2.785632403515475586e-01
2.877340466182651824e-01
2.877340466182651824e-01
2.877340466182651824e-01
2.816201757737867850e-01
2.816201757737867850e-01
2.804738249904470959e-01
2.804738249904470959e-01
2.804738249904470959e-01
2.720672525792892649e-01
2.720672525792892649e-01
2.651891478792510748e-01
2.651891478792510748e-01
2.651891478792510748e-01
2.762705387848681804e-01
2.762705387848681804e-01
2.674818494459304530e-01
2.674818494459304530e-01
2.674818494459304530e-01
2.709209017959495758e-01
2.709209017959495758e-01
2.762705387848681804e-01
2.762705387848681804e-01
2.762705387848681804e-01
2.720672525792892649e-01
2.720672525792892649e-01
2.693924340848299348e-01
2.693924340848299348e-01
2.693924340848299348e-01
2.636606801681314338e-01
2.636606801681314338e-01
2.609858616736721593e-01
2.609858616736721593e-01
2.609858616736721593e-01
2.514329384791746391e-01
2.514329384791746391e-01
2.560183416125334510e-01
2.560183416125334510e-01
2.560183416125334510e-01
2.598395108903324147e-01
2.598395108903324147e-01
2.537256400458540173e-01
2.537256400458540173e-01
2.537256400458540173e-01
2.560183416125334510e-01
2.560183416125334510e-01
2.617500955292319520e-01
2.617500955292319520e-01
2.617500955292319520e-01
2.678639663737103493e-01
2.678639663737103493e-01
2.499044707680550259e-01
2.499044707680550259e-01
2.499044707680550259e-01
2.495223538402751295e-01
2.495223538402751295e-01
2.606037447458922629e-01
2.606037447458922629e-01
2.606037447458922629e-01
2.537256400458540173e-01
2.537256400458540173e-01
2.560183416125334510e-01
2.560183416125334510e-01
2.560183416125334510e-01
2.457011845624761104e-01
2.457011845624761104e-01
2.552541077569736583e-01
2.552541077569736583e-01
2.552541077569736583e-01
2.602216278181123665e-01
2.602216278181123665e-01
2.491402369124952332e-01
2.491402369124952332e-01
2.491402369124952332e-01
2.529614061902942246e-01
2.529614061902942246e-01
2.499044707680550259e-01
2.499044707680550259e-01
2.499044707680550259e-01
2.499044707680550259e-01
2.499044707680550259e-01
2.464654184180359309e-01
2.464654184180359309e-01
2.464654184180359309e-01
2.460833014902560067e-01
2.460833014902560067e-01
2.525792892625143282e-01
2.525792892625143282e-01
2.525792892625143282e-01
2.483760030569354127e-01
2.483760030569354127e-01
2.449369507069163177e-01
2.449369507069163177e-01
2.449369507069163177e-01
2.388230798624378926e-01
2.388230798624378926e-01
2.430263660680168081e-01
2.430263660680168081e-01
2.430263660680168081e-01
2.541077569736339137e-01
2.541077569736339137e-01
2.518150554069545355e-01
2.518150554069545355e-01
2.518150554069545355e-01
2.544898739014138100e-01
2.544898739014138100e-01
2.502865876958349500e-01
2.502865876958349500e-01
2.502865876958349500e-01
2.468475353458158272e-01
2.468475353458158272e-01
2.411157814291172985e-01
2.411157814291172985e-01
2.411157814291172985e-01
2.434084829957967044e-01
2.434084829957967044e-01
2.430263660680168081e-01
2.430263660680168081e-01
2.430263660680168081e-01
2.422621322124570153e-01
2.422621322124570153e-01
2.499044707680550259e-01
2.499044707680550259e-01
2.499044707680550259e-01
2.460833014902560067e-01
2.460833014902560067e-01
2.468475353458158272e-01
2.468475353458158272e-01
2.468475353458158272e-01
2.411157814291172985e-01
2.411157814291172985e-01
2.491402369124952332e-01
2.491402369124952332e-01
2.491402369124952332e-01
2.376767290790982035e-01
2.376767290790982035e-01
2.311807413068398820e-01
2.311807413068398820e-01
2.311807413068398820e-01
2.281238058846006833e-01
2.281238058846006833e-01
2.418800152846771190e-01
2.418800152846771190e-01
2.418800152846771190e-01
2.372946121513183071e-01
2.372946121513183071e-01
2.292701566679404002e-01
2.292701566679404002e-01
2.292701566679404002e-01
2.307986243790599856e-01
2.307986243790599856e-01
2.288880397401604760e-01
2.288880397401604760e-01
2.288880397401604760e-01
2.346197936568590048e-01
2.346197936568590048e-01
2.388230798624378926e-01
2.388230798624378926e-01
2.388230798624378926e-01
2.300343905235001929e-01
2.300343905235001929e-01
2.346197936568590048e-01
2.346197936568590048e-01
2.346197936568590048e-01
2.181887657623232668e-01
2.181887657623232668e-01
2.258311043179212774e-01
2.258311043179212774e-01
2.258311043179212774e-01
2.265953381734810979e-01
2.265953381734810979e-01
2.296522735957202965e-01
2.296522735957202965e-01
2.296522735957202965e-01
2.300343905235001929e-01
2.300343905235001929e-01
2.178066488345433704e-01
2.178066488345433704e-01
2.178066488345433704e-01
2.170424149789835777e-01
2.170424149789835777e-01
2.285059228123805797e-01
2.285059228123805797e-01
2.285059228123805797e-01
2.162781811234237572e-01
2.162781811234237572e-01
2.071073748567061612e-01
2.071073748567061612e-01
2.071073748567061612e-01
2.170424149789835777e-01
2.170424149789835777e-01
2.109285441345051526e-01
2.109285441345051526e-01
2.243026366068016919e-01
2.243026366068016919e-01
2.243026366068016919e-01
2.097821933511654635e-01
2.097821933511654635e-01
2.243026366068016919e-01
2.243026366068016919e-01
2.243026366068016919e-01
2.166602980512036813e-01
2.166602980512036813e-01
2.170424149789835777e-01
2.170424149789835777e-01
2.170424149789835777e-01
2.109285441345051526e-01
2.109285441345051526e-01
2.002292701566679434e-01
2.002292701566679434e-01
2.002292701566679434e-01
1.998471532288880470e-01
1.998471532288880470e-01
2.051967902178066516e-01
2.051967902178066516e-01
2.051967902178066516e-01
2.063431410011463407e-01
2.063431410011463407e-01
2.090179594956056430e-01
2.090179594956056430e-01
2.090179594956056430e-01
2.051967902178066516e-01
2.051967902178066516e-01
1.964081008788689242e-01
1.964081008788689242e-01
1.964081008788689242e-01
2.009935040122277361e-01
2.009935040122277361e-01
2.063431410011463407e-01
2.063431410011463407e-01
2.063431410011463407e-01
1.979365685899885374e-01
1.979365685899885374e-01
2.025219717233473493e-01
2.025219717233473493e-01
2.025219717233473493e-01
1.891478792510508100e-01
1.891478792510508100e-01
1.998471532288880470e-01
1.998471532288880470e-01
1.998471532288880470e-01
2.032862055789071420e-01
2.032862055789071420e-01
1.899121131066106305e-01
1.899121131066106305e-01
1.899121131066106305e-01
1.944975162399694424e-01
1.944975162399694424e-01
1.994650363011081506e-01
1.994650363011081506e-01
1.994650363011081506e-01
1.849445930454719222e-01
1.849445930454719222e-01
1.899121131066106305e-01
1.899121131066106305e-01
1.899121131066106305e-01
1.811234237676729031e-01
1.811234237676729031e-01
1.864730607565915077e-01
1.864730607565915077e-01
1.864730607565915077e-01
1.929690485288498292e-01
1.929690485288498292e-01
1.906763469621704232e-01
1.906763469621704232e-01
1.906763469621704232e-01
1.891478792510508100e-01
1.891478792510508100e-01
1.849445930454719222e-01
1.849445930454719222e-01
1.849445930454719222e-01
1.891478792510508100e-01
1.891478792510508100e-01
1.899121131066106305e-01
1.899121131066106305e-01
1.899121131066106305e-01
1.899121131066106305e-01
1.899121131066106305e-01
1.880015284677111209e-01
1.880015284677111209e-01
1.880015284677111209e-01
1.899121131066106305e-01
1.899121131066106305e-01
1.826518914787925163e-01
1.826518914787925163e-01
1.826518914787925163e-01
1.872372946121513282e-01
1.872372946121513282e-01
1.872372946121513282e-01
1.872372946121513282e-01
1.872372946121513282e-01
1.803591899121131104e-01
1.803591899121131104e-01
1.822697745510126199e-01
1.822697745510126199e-01
1.822697745510126199e-01
1.876194115399312246e-01
1.876194115399312246e-01
1.834161253343523090e-01
1.834161253343523090e-01
1.834161253343523090e-01
1.746274359954146094e-01
1.746274359954146094e-01
1.811234237676729031e-01
1.811234237676729031e-01
1.811234237676729031e-01
1.830340084065724127e-01
1.830340084065724127e-01
1.727168513565150998e-01
1.727168513565150998e-01
1.727168513565150998e-01
1.876194115399312246e-01
1.876194115399312246e-01
1.738632021398547889e-01
1.738632021398547889e-01
1.738632021398547889e-01
1.834161253343523090e-01
1.834161253343523090e-01
1.708062667176155902e-01
1.708062667176155902e-01
1.708062667176155902e-01
1.834161253343523090e-01
1.834161253343523090e-01
1.719526175009552793e-01
1.719526175009552793e-01
1.719526175009552793e-01
1.792128391287733935e-01
1.792128391287733935e-01
1.727168513565150998e-01
1.727168513565150998e-01
1.727168513565150998e-01
1.646923958731371929e-01
1.646923958731371929e-01
1.780664883454337044e-01
1.780664883454337044e-01
1.780664883454337044e-01
1.811234237676729031e-01
1.811234237676729031e-01
1.677493312953763915e-01
1.677493312953763915e-01
1.677493312953763915e-01
1.757737867787542985e-01
1.757737867787542985e-01
1.818876576232326958e-01
1.818876576232326958e-01
1.818876576232326958e-01
1.692777990064959770e-01
1.692777990064959770e-01
1.700420328620557975e-01
1.700420328620557975e-01
1.700420328620557975e-01
1.700420328620557975e-01
1.700420328620557975e-01
1.673672143675964952e-01
1.673672143675964952e-01
1.673672143675964952e-01
1.727168513565150998e-01
1.727168513565150998e-01
1.612533435231180701e-01
1.612533435231180701e-01
1.612533435231180701e-01
1.746274359954146094e-01
1.746274359954146094e-01
1.765380206343140912e-01
1.765380206343140912e-01
1.765380206343140912e-01
1.654566297286969856e-01
1.654566297286969856e-01
1.681314482231562879e-01
1.681314482231562879e-01
1.681314482231562879e-01
1.711883836453954866e-01
1.711883836453954866e-01
1.631639281620175796e-01
1.631639281620175796e-01
1.631639281620175796e-01
1.677493312953763915e-01
1.677493312953763915e-01
1.631639281620175796e-01
1.631639281620175796e-01
1.631639281620175796e-01
1.769201375620939876e-01
1.769201375620939876e-01
1.727168513565150998e-01
1.727168513565150998e-01
1.727168513565150998e-01
1.669850974398165711e-01
1.669850974398165711e-01
1.750095529231945057e-01
1.750095529231945057e-01
1.750095529231945057e-01
1.650745128009170892e-01
1.650745128009170892e-01
1.669850974398165711e-01
1.669850974398165711e-01
1.643102789453572687e-01
1.643102789453572687e-01
1.643102789453572687e-01
1.623996943064577869e-01
1.623996943064577869e-01
1.773022544898739117e-01
1.773022544898739117e-01
1.773022544898739117e-01
1.757737867787542985e-01
1.757737867787542985e-01
1.696599159342759011e-01
1.696599159342759011e-01
1.696599159342759011e-01
1.578142911730989750e-01
1.578142911730989750e-01
1.685135651509361843e-01
1.685135651509361843e-01
1.685135651509361843e-01
1.715705005731753829e-01
1.715705005731753829e-01
1.593427588842185605e-01
1.593427588842185605e-01
1.593427588842185605e-01
1.593427588842185605e-01
1.593427588842185605e-01
1.715705005731753829e-01
1.715705005731753829e-01
1.715705005731753829e-01
1.753916698509744021e-01
1.753916698509744021e-01
1.681314482231562879e-01
1.681314482231562879e-01
1.681314482231562879e-01
1.681314482231562879e-01
1.681314482231562879e-01
1.719526175009552793e-01
1.719526175009552793e-01
1.719526175009552793e-01
1.700420328620557975e-01
1.700420328620557975e-01
1.723347344287352034e-01
1.723347344287352034e-01
1.723347344287352034e-01
1.730989682842949962e-01
1.730989682842949962e-01
1.730989682842949962e-01
1.730989682842949962e-01
1.730989682842949962e-01
1.696599159342759011e-01
1.696599159342759011e-01
1.578142911730989750e-01
1.578142911730989750e-01
1.578142911730989750e-01
1.639281620175773724e-01
1.639281620175773724e-01
1.639281620175773724e-01
1.639281620175773724e-01
1.639281620175773724e-01
1.742453190676346853e-01
1.742453190676346853e-01
1.666029805120366747e-01
1.666029805120366747e-01
1.666029805120366747e-01
1.692777990064959770e-01
1.692777990064959770e-01
1.574321742453190787e-01
1.574321742453190787e-01
1.574321742453190787e-01
1.581964081008788714e-01
1.581964081008788714e-01
1.757737867787542985e-01
1.757737867787542985e-01
1.757737867787542985e-01
1.608712265953381737e-01
1.608712265953381737e-01
1.669850974398165711e-01
1.669850974398165711e-01
1.669850974398165711e-01
1.723347344287352034e-01
1.723347344287352034e-01
1.662208635842567783e-01
1.662208635842567783e-01
1.662208635842567783e-01
1.688956820787160806e-01
1.688956820787160806e-01
1.620175773786778628e-01
1.620175773786778628e-01
1.620175773786778628e-01
1.597248758119984846e-01
1.597248758119984846e-01
1.620175773786778628e-01
1.620175773786778628e-01
1.620175773786778628e-01
1.627818112342376833e-01
1.627818112342376833e-01
1.677493312953763915e-01
1.677493312953763915e-01
1.677493312953763915e-01
1.696599159342759011e-01
1.696599159342759011e-01
1.604891096675582773e-01
1.604891096675582773e-01
1.604891096675582773e-01
1.654566297286969856e-01
1.654566297286969856e-01
1.581964081008788714e-01
1.581964081008788714e-01
1.581964081008788714e-01
1.528467711119602668e-01
1.528467711119602668e-01
1.608712265953381737e-01
1.608712265953381737e-01
1.608712265953381737e-01
1.574321742453190787e-01
1.574321742453190787e-01
1.570500573175391545e-01
1.570500573175391545e-01
1.570500573175391545e-01
1.616354604508979664e-01
1.616354604508979664e-01
1.635460450897974760e-01
1.635460450897974760e-01
1.635460450897974760e-01
1.593427588842185605e-01
1.593427588842185605e-01
1.639281620175773724e-01
1.639281620175773724e-01
1.639281620175773724e-01
1.612533435231180701e-01
1.612533435231180701e-01
1.620175773786778628e-01
1.620175773786778628e-01
1.620175773786778628e-01
1.566679403897592582e-01
1.566679403897592582e-01
1.608712265953381737e-01
1.608712265953381737e-01
1.608712265953381737e-01
1.711883836453954866e-01
1.711883836453954866e-01
1.654566297286969856e-01
1.654566297286969856e-01
1.654566297286969856e-01
1.643102789453572687e-01
1.643102789453572687e-01
1.666029805120366747e-01
1.666029805120366747e-01
1.666029805120366747e-01
1.643102789453572687e-01
1.643102789453572687e-01
1.723347344287352034e-01
1.723347344287352034e-01
1.723347344287352034e-01
1.643102789453572687e-01
1.643102789453572687e-01
1.585785250286587678e-01
1.585785250286587678e-01
1.585785250286587678e-01
1.623996943064577869e-01
1.623996943064577869e-01
1.681314482231562879e-01
1.681314482231562879e-01
1.681314482231562879e-01
1.669850974398165711e-01
1.669850974398165711e-01
1.742453190676346853e-01
1.742453190676346853e-01
1.742453190676346853e-01
1.730989682842949962e-01
1.730989682842949962e-01
1.704241497898356938e-01
1.704241497898356938e-01
1.704241497898356938e-01
1.807413068398930067e-01
1.807413068398930067e-01
1.860909438288116113e-01
1.860909438288116113e-01
1.860909438288116113e-01
2.017577378677875566e-01
2.017577378677875566e-01
1.937332823844096219e-01
1.937332823844096219e-01
1.937332823844096219e-01
2.009935040122277361e-01
2.009935040122277361e-01
2.032862055789071420e-01
2.032862055789071420e-01
2.032862055789071420e-01
2.136033626289644549e-01
2.136033626289644549e-01
2.155139472678639645e-01
2.155139472678639645e-01
2.155139472678639645e-01
2.220099350401222860e-01
2.220099350401222860e-01
2.273595720290408906e-01
2.273595720290408906e-01
2.273595720290408906e-01
