1.773022544898739117e-01
1.773022544898739117e-01
1.773022544898739117e-01
1.857088269010317150e-01
1.857088269010317150e-01
1.784486052732136008e-01
1.784486052732136008e-01
1.784486052732136008e-01
1.700420328620557975e-01
1.700420328620557975e-01
1.830340084065724127e-01
1.830340084065724127e-01
1.830340084065724127e-01
1.692777990064959770e-01
1.692777990064959770e-01
1.738632021398547889e-01
1.738632021398547889e-01
1.738632021398547889e-01
1.730989682842949962e-01
1.730989682842949962e-01
1.792128391287733935e-01
1.792128391287733935e-01
1.792128391287733935e-01
1.811234237676729031e-01
1.811234237676729031e-01
1.753916698509744021e-01
1.753916698509744021e-01
1.753916698509744021e-01
1.711883836453954866e-01
1.711883836453954866e-01
1.696599159342759011e-01
1.696599159342759011e-01
1.696599159342759011e-01
1.708062667176155902e-01
1.708062667176155902e-01
1.742453190676346853e-01
1.742453190676346853e-01
1.742453190676346853e-01
1.639281620175773724e-01
1.639281620175773724e-01
1.780664883454337044e-01
1.780664883454337044e-01
1.780664883454337044e-01
1.723347344287352034e-01
1.723347344287352034e-01
1.730989682842949962e-01
1.730989682842949962e-01
1.730989682842949962e-01
1.673672143675964952e-01
1.673672143675964952e-01
1.776843714176538080e-01
1.776843714176538080e-01
1.635460450897974760e-01
1.635460450897974760e-01
1.635460450897974760e-01
1.681314482231562879e-01
1.681314482231562879e-01
1.696599159342759011e-01
1.696599159342759011e-01
1.696599159342759011e-01
1.681314482231562879e-01
1.681314482231562879e-01
1.708062667176155902e-01
1.708062667176155902e-01
1.708062667176155902e-01
1.727168513565150998e-01
1.727168513565150998e-01
1.734810852120748925e-01
1.734810852120748925e-01
1.734810852120748925e-01
1.742453190676346853e-01
1.742453190676346853e-01
1.635460450897974760e-01
1.635460450897974760e-01
1.635460450897974760e-01
1.669850974398165711e-01
1.669850974398165711e-01
1.646923958731371929e-01
1.646923958731371929e-01
1.646923958731371929e-01
1.704241497898356938e-01
1.704241497898356938e-01
1.643102789453572687e-01
1.643102789453572687e-01
1.643102789453572687e-01
1.685135651509361843e-01
1.685135651509361843e-01
1.784486052732136008e-01
1.784486052732136008e-01
1.784486052732136008e-01
1.742453190676346853e-01
1.742453190676346853e-01
1.677493312953763915e-01
1.677493312953763915e-01
1.677493312953763915e-01
1.776843714176538080e-01
1.776843714176538080e-01
1.708062667176155902e-01
1.708062667176155902e-01
1.708062667176155902e-01
1.631639281620175796e-01
1.631639281620175796e-01
1.578142911730989750e-01
1.578142911730989750e-01
1.578142911730989750e-01
1.822697745510126199e-01
1.822697745510126199e-01
1.704241497898356938e-01
1.704241497898356938e-01
1.704241497898356938e-01
1.792128391287733935e-01
1.792128391287733935e-01
1.623996943064577869e-01
1.623996943064577869e-01
1.623996943064577869e-01
1.627818112342376833e-01
1.627818112342376833e-01
1.646923958731371929e-01
1.646923958731371929e-01
1.646923958731371929e-01
1.753916698509744021e-01
1.753916698509744021e-01
1.780664883454337044e-01
1.780664883454337044e-01
1.780664883454337044e-01
1.654566297286969856e-01
1.654566297286969856e-01
1.589606419564386641e-01
1.589606419564386641e-01
1.589606419564386641e-01
1.669850974398165711e-01
1.669850974398165711e-01
1.730989682842949962e-01
1.730989682842949962e-01
1.730989682842949962e-01
1.742453190676346853e-01
1.742453190676346853e-01
1.696599159342759011e-01
1.696599159342759011e-01
1.696599159342759011e-01
1.734810852120748925e-01
1.734810852120748925e-01
1.650745128009170892e-01
1.650745128009170892e-01
1.650745128009170892e-01
1.711883836453954866e-01
1.711883836453954866e-01
1.738632021398547889e-01
1.738632021398547889e-01
1.738632021398547889e-01
1.704241497898356938e-01
1.704241497898356938e-01
1.799770729843332140e-01
1.799770729843332140e-01
1.799770729843332140e-01
1.795949560565533176e-01
1.795949560565533176e-01
1.673672143675964952e-01
1.673672143675964952e-01
1.673672143675964952e-01
1.631639281620175796e-01
1.631639281620175796e-01
1.685135651509361843e-01
1.685135651509361843e-01
1.685135651509361843e-01
1.704241497898356938e-01
1.704241497898356938e-01
1.616354604508979664e-01
1.616354604508979664e-01
1.616354604508979664e-01
1.662208635842567783e-01
1.662208635842567783e-01
1.708062667176155902e-01
1.708062667176155902e-01
1.708062667176155902e-01
1.643102789453572687e-01
1.643102789453572687e-01
1.784486052732136008e-01
1.784486052732136008e-01
1.784486052732136008e-01
1.788307222009934971e-01
1.788307222009934971e-01
1.677493312953763915e-01
1.677493312953763915e-01
1.677493312953763915e-01
1.795949560565533176e-01
1.795949560565533176e-01
1.616354604508979664e-01
1.616354604508979664e-01
1.616354604508979664e-01
1.715705005731753829e-01
1.715705005731753829e-01
1.589606419564386641e-01
1.589606419564386641e-01
1.589606419564386641e-01
1.700420328620557975e-01
1.700420328620557975e-01
1.620175773786778628e-01
1.620175773786778628e-01
1.620175773786778628e-01
1.608712265953381737e-01
1.608712265953381737e-01
1.627818112342376833e-01
1.627818112342376833e-01
1.627818112342376833e-01
1.730989682842949962e-01
1.730989682842949962e-01
1.792128391287733935e-01
1.792128391287733935e-01
1.792128391287733935e-01
1.757737867787542985e-01
1.757737867787542985e-01
1.608712265953381737e-01
1.608712265953381737e-01
1.608712265953381737e-01
1.730989682842949962e-01
1.730989682842949962e-01
1.601069927397783810e-01
1.601069927397783810e-01
1.601069927397783810e-01
1.627818112342376833e-01
1.627818112342376833e-01
1.715705005731753829e-01
1.715705005731753829e-01
1.715705005731753829e-01
1.757737867787542985e-01
1.757737867787542985e-01
1.761559037065341948e-01
1.761559037065341948e-01
1.761559037065341948e-01
1.773022544898739117e-01
1.773022544898739117e-01
1.589606419564386641e-01
1.589606419564386641e-01
1.589606419564386641e-01
1.643102789453572687e-01
1.643102789453572687e-01
1.742453190676346853e-01
1.742453190676346853e-01
1.742453190676346853e-01
1.627818112342376833e-01
1.627818112342376833e-01
1.635460450897974760e-01
1.635460450897974760e-01
1.635460450897974760e-01
1.666029805120366747e-01
1.666029805120366747e-01
1.662208635842567783e-01
1.662208635842567783e-01
1.662208635842567783e-01
1.761559037065341948e-01
1.761559037065341948e-01
1.685135651509361843e-01
1.685135651509361843e-01
1.601069927397783810e-01
1.601069927397783810e-01
1.601069927397783810e-01
1.585785250286587678e-01
1.585785250286587678e-01
1.612533435231180701e-01
1.612533435231180701e-01
1.612533435231180701e-01
1.685135651509361843e-01
1.685135651509361843e-01
1.708062667176155902e-01
1.708062667176155902e-01
1.708062667176155902e-01
1.536110049675200595e-01
1.536110049675200595e-01
1.616354604508979664e-01
1.616354604508979664e-01
1.616354604508979664e-01
1.719526175009552793e-01
1.719526175009552793e-01
1.669850974398165711e-01
1.669850974398165711e-01
1.669850974398165711e-01
1.570500573175391545e-01
1.570500573175391545e-01
1.734810852120748925e-01
1.734810852120748925e-01
1.734810852120748925e-01
1.593427588842185605e-01
1.593427588842185605e-01
1.799770729843332140e-01
1.799770729843332140e-01
1.799770729843332140e-01
1.616354604508979664e-01
1.616354604508979664e-01
1.769201375620939876e-01
1.769201375620939876e-01
1.769201375620939876e-01
1.746274359954146094e-01
1.746274359954146094e-01
1.696599159342759011e-01
1.696599159342759011e-01
1.696599159342759011e-01
1.738632021398547889e-01
1.738632021398547889e-01
1.738632021398547889e-01
1.738632021398547889e-01
1.738632021398547889e-01
1.620175773786778628e-01
1.620175773786778628e-01
1.677493312953763915e-01
1.677493312953763915e-01
1.677493312953763915e-01
1.761559037065341948e-01
1.761559037065341948e-01
1.646923958731371929e-01
1.646923958731371929e-01
1.646923958731371929e-01
1.658387466564768820e-01
1.658387466564768820e-01
1.708062667176155902e-01
1.708062667176155902e-01
1.708062667176155902e-01
1.727168513565150998e-01
1.727168513565150998e-01
1.700420328620557975e-01
1.700420328620557975e-01
1.700420328620557975e-01
1.685135651509361843e-01
1.685135651509361843e-01
1.788307222009934971e-01
1.788307222009934971e-01
1.788307222009934971e-01
1.822697745510126199e-01
1.822697745510126199e-01
1.742453190676346853e-01
1.742453190676346853e-01
1.742453190676346853e-01
1.864730607565915077e-01
1.864730607565915077e-01
1.773022544898739117e-01
1.773022544898739117e-01
1.773022544898739117e-01
1.807413068398930067e-01
1.807413068398930067e-01
1.868551776843714041e-01
1.868551776843714041e-01
1.868551776843714041e-01
1.929690485288498292e-01
1.929690485288498292e-01
1.872372946121513282e-01
1.872372946121513282e-01
1.872372946121513282e-01
1.948796331677493388e-01
1.948796331677493388e-01
2.094000764233855671e-01
2.094000764233855671e-01
2.094000764233855671e-01
2.051967902178066516e-01
2.051967902178066516e-01
2.097821933511654635e-01
2.097821933511654635e-01
2.097821933511654635e-01
2.082537256400458503e-01
2.082537256400458503e-01
2.223920519679021823e-01
2.223920519679021823e-01
2.223920519679021823e-01
2.116927779900649731e-01
2.116927779900649731e-01
2.220099350401222860e-01
2.220099350401222860e-01
2.220099350401222860e-01
2.239205196790217678e-01
2.239205196790217678e-01
2.273595720290408906e-01
2.273595720290408906e-01
2.273595720290408906e-01
2.430263660680168081e-01
2.430263660680168081e-01
2.483760030569354127e-01
2.483760030569354127e-01
2.483760030569354127e-01
2.598395108903324147e-01
2.598395108903324147e-01
2.621322124570118484e-01
2.621322124570118484e-01
2.621322124570118484e-01
2.651891478792510748e-01
2.651891478792510748e-01
2.628964463125716411e-01
2.628964463125716411e-01
2.628964463125716411e-01
2.770347726404279731e-01
2.770347726404279731e-01
2.770347726404279731e-01
2.770347726404279731e-01
2.770347726404279731e-01
2.877340466182651824e-01
2.877340466182651824e-01
2.827665265571264741e-01
2.827665265571264741e-01
2.827665265571264741e-01
2.911730989682843052e-01
2.911730989682843052e-01
3.098968284294994491e-01
3.098968284294994491e-01
3.098968284294994491e-01
3.037829575850209962e-01
3.037829575850209962e-01
3.133358807795185164e-01
3.133358807795185164e-01
3.133358807795185164e-01
3.213603362628964510e-01
3.213603362628964510e-01
3.305311425296140748e-01
3.305311425296140748e-01
3.305311425296140748e-01
3.274742071073748484e-01
3.274742071073748484e-01
3.259457393962552629e-01
3.259457393962552629e-01
3.259457393962552629e-01
3.454337027130301996e-01
3.454337027130301996e-01
3.473442873519296814e-01
3.473442873519296814e-01
3.473442873519296814e-01
3.477264042797095778e-01
3.477264042797095778e-01
3.404661826518914913e-01
3.404661826518914913e-01
3.404661826518914913e-01
3.530760412686281824e-01
3.530760412686281824e-01
3.469621704241497850e-01
3.469621704241497850e-01
3.469621704241497850e-01
3.641574321742453435e-01
3.641574321742453435e-01
3.645395491020252399e-01
3.645395491020252399e-01
3.645395491020252399e-01
3.664501337409247217e-01
3.664501337409247217e-01
3.702713030187237409e-01
3.702713030187237409e-01
3.702713030187237409e-01
3.691249522353840518e-01
3.691249522353840518e-01
3.744745892243026564e-01
3.744745892243026564e-01
3.744745892243026564e-01
3.752388230798624491e-01
3.752388230798624491e-01
3.886129155521589329e-01
3.886129155521589329e-01
3.886129155521589329e-01
3.821169277799006392e-01
3.821169277799006392e-01
3.840275124188001765e-01
3.840275124188001765e-01
3.840275124188001765e-01
3.863202139854795547e-01
3.863202139854795547e-01
3.893771494077187811e-01
3.893771494077187811e-01
3.867023309132594511e-01
3.867023309132594511e-01
3.867023309132594511e-01
3.912877340466182630e-01
3.912877340466182630e-01
3.939625525410775930e-01
3.939625525410775930e-01
3.939625525410775930e-01
3.996943064577760940e-01
3.996943064577760940e-01
3.989300726022163013e-01
3.989300726022163013e-01
3.989300726022163013e-01
4.100114635078334069e-01
4.100114635078334069e-01
4.092472296522736142e-01
4.092472296522736142e-01
4.092472296522736142e-01
4.069545280855941805e-01
4.069545280855941805e-01
4.027512418800152649e-01
4.027512418800152649e-01
4.027512418800152649e-01
4.054260603744745950e-01
4.054260603744745950e-01
4.042797095911349059e-01
4.042797095911349059e-01
4.042797095911349059e-01
4.058081773022544914e-01
4.058081773022544914e-01
4.134505158578525297e-01
4.134505158578525297e-01
4.134505158578525297e-01
4.165074512800917006e-01
4.165074512800917006e-01
4.130683989300725778e-01
4.130683989300725778e-01
4.130683989300725778e-01
4.252961406190294280e-01
4.252961406190294280e-01
4.096293465800535105e-01
4.096293465800535105e-01
4.096293465800535105e-01
4.161253343523118042e-01
4.161253343523118042e-01
4.092472296522736142e-01
4.092472296522736142e-01
4.092472296522736142e-01
4.073366450133740768e-01
4.073366450133740768e-01
4.027512418800152649e-01
4.027512418800152649e-01
4.027512418800152649e-01
4.123041650745127851e-01
4.123041650745127851e-01
4.241497898356897389e-01
4.241497898356897389e-01
4.241497898356897389e-01
4.126862820022926814e-01
4.126862820022926814e-01
4.096293465800535105e-01
4.096293465800535105e-01
4.096293465800535105e-01
4.096293465800535105e-01
4.096293465800535105e-01
4.096293465800535105e-01
4.096293465800535105e-01
4.096293465800535105e-01
4.191822697745510307e-01
4.191822697745510307e-01
4.161253343523118042e-01
4.161253343523118042e-01
4.161253343523118042e-01
4.134505158578525297e-01
4.134505158578525297e-01
4.111578142911730960e-01
4.111578142911730960e-01
4.111578142911730960e-01
4.149789835689721151e-01
4.149789835689721151e-01
4.226213221245700979e-01
4.226213221245700979e-01
4.226213221245700979e-01
4.145968666411922188e-01
4.145968666411922188e-01
4.119220481467328887e-01
4.119220481467328887e-01
4.119220481467328887e-01
4.176538020634313897e-01
4.176538020634313897e-01
4.103935804356133032e-01
4.103935804356133032e-01
4.103935804356133032e-01
4.153611004967520115e-01
4.153611004967520115e-01
4.123041650745127851e-01
4.123041650745127851e-01
4.123041650745127851e-01
4.008406572411157831e-01
4.008406572411157831e-01
3.993121895299961976e-01
3.993121895299961976e-01
3.993121895299961976e-01
3.962552541077569712e-01
3.962552541077569712e-01
3.966373710355368676e-01
3.966373710355368676e-01
3.966373710355368676e-01
3.951089033244172821e-01
3.951089033244172821e-01
3.928162017577378484e-01
3.928162017577378484e-01
3.928162017577378484e-01
3.962552541077569712e-01
3.962552541077569712e-01
3.916698509743981593e-01
3.916698509743981593e-01
3.916698509743981593e-01
3.912877340466182630e-01
3.912877340466182630e-01
3.840275124188001765e-01
3.840275124188001765e-01
3.840275124188001765e-01
3.947267863966373858e-01
3.947267863966373858e-01
3.836453954910202246e-01
3.836453954910202246e-01
3.836453954910202246e-01
3.855559801299197620e-01
3.855559801299197620e-01
3.855559801299197620e-01
3.855559801299197620e-01
3.855559801299197620e-01
3.828811616354604319e-01
3.828811616354604319e-01
3.767672907909820346e-01
3.767672907909820346e-01
3.767672907909820346e-01
3.874665647688192438e-01
3.874665647688192438e-01
3.847917462743599692e-01
3.847917462743599692e-01
3.847917462743599692e-01
3.821169277799006392e-01
3.821169277799006392e-01
3.687428353076040999e-01
3.687428353076040999e-01
3.687428353076040999e-01
3.626289644631257025e-01
3.626289644631257025e-01
3.695070691631639481e-01
3.695070691631639481e-01
3.695070691631639481e-01
3.706534199465036372e-01
3.706534199465036372e-01
3.622468475353458062e-01
3.622468475353458062e-01
3.622468475353458062e-01
3.553687428353076161e-01
3.553687428353076161e-01
3.641574321742453435e-01
3.641574321742453435e-01
3.641574321742453435e-01
3.481085212074894741e-01
3.481085212074894741e-01
3.530760412686281824e-01
3.530760412686281824e-01
3.530760412686281824e-01
3.538402751241879751e-01
3.538402751241879751e-01
3.400840657241115950e-01
3.400840657241115950e-01
3.400840657241115950e-01
3.297669086740542821e-01
3.297669086740542821e-01
3.351165456629728867e-01
3.351165456629728867e-01
3.351165456629728867e-01
3.144822315628582610e-01
3.144822315628582610e-01
3.217424531906763474e-01
3.217424531906763474e-01
3.217424531906763474e-01
3.255636224684753666e-01
3.255636224684753666e-01
3.263278563240351593e-01
3.263278563240351593e-01
3.263278563240351593e-01
3.278563240351547448e-01
3.278563240351547448e-01
3.118074130683989309e-01
3.118074130683989309e-01
3.118074130683989309e-01
3.091325945739396008e-01
3.091325945739396008e-01
3.068398930072602226e-01
3.068398930072602226e-01
3.068398930072602226e-01
3.003439052350019289e-01
3.003439052350019289e-01
3.014902560183416180e-01
3.014902560183416180e-01
2.938479174627435797e-01
2.938479174627435797e-01
2.938479174627435797e-01
2.881161635460450787e-01
2.881161635460450787e-01
2.892625143293847678e-01
2.892625143293847678e-01
2.892625143293847678e-01
2.907909820405044088e-01
2.907909820405044088e-01
2.739778372181887467e-01
2.739778372181887467e-01
2.739778372181887467e-01
2.732136033626289540e-01
2.732136033626289540e-01
2.705387848681696794e-01
2.705387848681696794e-01
2.705387848681696794e-01
2.751241880015284913e-01
2.751241880015284913e-01
2.686282002292701421e-01
2.686282002292701421e-01
2.686282002292701421e-01
2.613679786014520556e-01
2.613679786014520556e-01
2.716851356515093685e-01
2.716851356515093685e-01
2.716851356515093685e-01
2.747420710737485394e-01
2.747420710737485394e-01
2.659533817348108675e-01
2.659533817348108675e-01
2.659533817348108675e-01
2.590752770347726219e-01
2.590752770347726219e-01
2.594573939625525183e-01
2.594573939625525183e-01
2.594573939625525183e-01
2.609858616736721593e-01
2.609858616736721593e-01
2.579289262514329328e-01
2.579289262514329328e-01
2.579289262514329328e-01
2.487581199847153091e-01
2.487581199847153091e-01
2.628964463125716411e-01
2.628964463125716411e-01
2.628964463125716411e-01
2.468475353458158272e-01
2.468475353458158272e-01
2.426442491402369117e-01
2.426442491402369117e-01
2.426442491402369117e-01
2.525792892625143282e-01
2.525792892625143282e-01
2.548719908291937064e-01
2.548719908291937064e-01
2.548719908291937064e-01
2.430263660680168081e-01
2.430263660680168081e-01
2.544898739014138100e-01
2.544898739014138100e-01
2.544898739014138100e-01
2.403515475735575058e-01
2.403515475735575058e-01
2.445548337791364213e-01
2.445548337791364213e-01
2.445548337791364213e-01
2.357661444401986939e-01
2.357661444401986939e-01
2.445548337791364213e-01
2.445548337791364213e-01
2.445548337791364213e-01
2.342376767290791084e-01
2.342376767290791084e-01
2.445548337791364213e-01
2.445548337791364213e-01
2.445548337791364213e-01
2.380588460068780998e-01
2.380588460068780998e-01
2.399694306457776094e-01
2.399694306457776094e-01
2.399694306457776094e-01
2.311807413068398820e-01
2.311807413068398820e-01
2.246847535345815883e-01
2.246847535345815883e-01
2.246847535345815883e-01
2.285059228123805797e-01
2.285059228123805797e-01
2.384409629346579962e-01
2.384409629346579962e-01
2.384409629346579962e-01
2.346197936568590048e-01
2.346197936568590048e-01
2.285059228123805797e-01
2.285059228123805797e-01
2.285059228123805797e-01
2.357661444401986939e-01
2.357661444401986939e-01
2.407336645013374021e-01
2.407336645013374021e-01
2.407336645013374021e-01
2.227741688956820787e-01
2.227741688956820787e-01
2.281238058846006833e-01
2.281238058846006833e-01
2.281238058846006833e-01
2.185708826901031632e-01
2.185708826901031632e-01
2.220099350401222860e-01
2.220099350401222860e-01
2.220099350401222860e-01
2.231562858234619751e-01
2.231562858234619751e-01
2.243026366068016919e-01
2.243026366068016919e-01
2.243026366068016919e-01
2.350019105846389011e-01
2.350019105846389011e-01
2.227741688956820787e-01
2.227741688956820787e-01
2.227741688956820787e-01
2.288880397401604760e-01
2.288880397401604760e-01
2.330913259457393916e-01
2.330913259457393916e-01
2.330913259457393916e-01
2.300343905235001929e-01
2.300343905235001929e-01
2.243026366068016919e-01
2.243026366068016919e-01
2.243026366068016919e-01
2.212457011845624655e-01
2.212457011845624655e-01
2.220099350401222860e-01
2.220099350401222860e-01
2.220099350401222860e-01
2.139854795567443513e-01
2.139854795567443513e-01
2.281238058846006833e-01
2.281238058846006833e-01
2.281238058846006833e-01
2.170424149789835777e-01
2.170424149789835777e-01
2.124570118456247658e-01
2.124570118456247658e-01
2.124570118456247658e-01
2.220099350401222860e-01
2.220099350401222860e-01
2.216278181123423896e-01
2.216278181123423896e-01
2.216278181123423896e-01
2.158960641956438609e-01
2.158960641956438609e-01
2.132212457011845586e-01
2.132212457011845586e-01
2.132212457011845586e-01
2.155139472678639645e-01
2.155139472678639645e-01
2.113106610622850490e-01
2.113106610622850490e-01
2.113106610622850490e-01
2.178066488345433704e-01
2.178066488345433704e-01
2.185708826901031632e-01
2.185708826901031632e-01
2.185708826901031632e-01
2.200993504012227764e-01
2.200993504012227764e-01
2.044325563622468589e-01
2.044325563622468589e-01
2.044325563622468589e-01
2.006113870844478397e-01
2.006113870844478397e-01
2.101643102789453599e-01
2.101643102789453599e-01
2.101643102789453599e-01
2.032862055789071420e-01
2.032862055789071420e-01
2.002292701566679434e-01
2.002292701566679434e-01
2.002292701566679434e-01
1.922048146732900364e-01
1.922048146732900364e-01
2.021398547955674529e-01
2.021398547955674529e-01
2.021398547955674529e-01
2.009935040122277361e-01
2.009935040122277361e-01
2.132212457011845586e-01
2.132212457011845586e-01
2.132212457011845586e-01
1.929690485288498292e-01
1.929690485288498292e-01
1.998471532288880470e-01
1.998471532288880470e-01
1.998471532288880470e-01
2.067252579289262648e-01
2.067252579289262648e-01
2.036683225066870384e-01
2.036683225066870384e-01
2.021398547955674529e-01
2.021398547955674529e-01
2.021398547955674529e-01
1.872372946121513282e-01
1.872372946121513282e-01
2.048146732900267553e-01
2.048146732900267553e-01
2.048146732900267553e-01
2.040504394344669348e-01
2.040504394344669348e-01
1.895299961788307341e-01
1.895299961788307341e-01
1.895299961788307341e-01
1.868551776843714041e-01
1.868551776843714041e-01
1.891478792510508100e-01
1.891478792510508100e-01
1.891478792510508100e-01
1.868551776843714041e-01
1.868551776843714041e-01
1.880015284677111209e-01
1.880015284677111209e-01
1.880015284677111209e-01
1.964081008788689242e-01
1.964081008788689242e-01
1.803591899121131104e-01
1.803591899121131104e-01
1.803591899121131104e-01
1.906763469621704232e-01
1.906763469621704232e-01
1.876194115399312246e-01
1.876194115399312246e-01
1.876194115399312246e-01
1.876194115399312246e-01
1.876194115399312246e-01
1.891478792510508100e-01
1.891478792510508100e-01
1.891478792510508100e-01
1.975544516622086411e-01
1.975544516622086411e-01
1.837982422621322054e-01
1.837982422621322054e-01
1.837982422621322054e-01
1.818876576232326958e-01
1.818876576232326958e-01
1.818876576232326958e-01
1.818876576232326958e-01
1.818876576232326958e-01
1.799770729843332140e-01
1.799770729843332140e-01
1.860909438288116113e-01
1.860909438288116113e-01
1.860909438288116113e-01
1.876194115399312246e-01
1.876194115399312246e-01
1.730989682842949962e-01
1.730989682842949962e-01
1.730989682842949962e-01
1.818876576232326958e-01
1.818876576232326958e-01
1.864730607565915077e-01
1.864730607565915077e-01
1.864730607565915077e-01
1.887657623232709136e-01
1.887657623232709136e-01
1.887657623232709136e-01
1.887657623232709136e-01
1.887657623232709136e-01
1.864730607565915077e-01
1.864730607565915077e-01
1.807413068398930067e-01
1.807413068398930067e-01
1.807413068398930067e-01
1.887657623232709136e-01
1.887657623232709136e-01
1.895299961788307341e-01
1.895299961788307341e-01
1.895299961788307341e-01
1.845624761176920259e-01
1.845624761176920259e-01
1.784486052732136008e-01
1.784486052732136008e-01
1.784486052732136008e-01
1.738632021398547889e-01
1.738632021398547889e-01
1.807413068398930067e-01
1.807413068398930067e-01
1.807413068398930067e-01
1.700420328620557975e-01
1.700420328620557975e-01
1.692777990064959770e-01
1.692777990064959770e-01
1.692777990064959770e-01
1.692777990064959770e-01
1.692777990064959770e-01
1.822697745510126199e-01
1.822697745510126199e-01
1.822697745510126199e-01
1.753916698509744021e-01
1.753916698509744021e-01
1.708062667176155902e-01
1.708062667176155902e-01
1.708062667176155902e-01
1.692777990064959770e-01
1.692777990064959770e-01
1.795949560565533176e-01
1.795949560565533176e-01
1.795949560565533176e-01
1.650745128009170892e-01
1.650745128009170892e-01
1.792128391287733935e-01
1.792128391287733935e-01
1.792128391287733935e-01
1.753916698509744021e-01
1.753916698509744021e-01
1.673672143675964952e-01
1.673672143675964952e-01
1.673672143675964952e-01
1.887657623232709136e-01
1.887657623232709136e-01
1.761559037065341948e-01
1.761559037065341948e-01
1.761559037065341948e-01
1.688956820787160806e-01
1.688956820787160806e-01
1.719526175009552793e-01
1.719526175009552793e-01
1.719526175009552793e-01
1.830340084065724127e-01
1.830340084065724127e-01
1.666029805120366747e-01
1.666029805120366747e-01
1.666029805120366747e-01
1.688956820787160806e-01
1.688956820787160806e-01
1.688956820787160806e-01
1.688956820787160806e-01
1.688956820787160806e-01
1.730989682842949962e-01
1.730989682842949962e-01
1.643102789453572687e-01
1.643102789453572687e-01
1.643102789453572687e-01
1.646923958731371929e-01
1.646923958731371929e-01
1.608712265953381737e-01
1.608712265953381737e-01
1.608712265953381737e-01
1.795949560565533176e-01
1.795949560565533176e-01
1.669850974398165711e-01
1.669850974398165711e-01
1.669850974398165711e-01
1.711883836453954866e-01
1.711883836453954866e-01
1.669850974398165711e-01
1.669850974398165711e-01
1.669850974398165711e-01
1.795949560565533176e-01
1.795949560565533176e-01
1.646923958731371929e-01
1.646923958731371929e-01
1.646923958731371929e-01
1.799770729843332140e-01
1.799770729843332140e-01
1.601069927397783810e-01
1.601069927397783810e-01
1.601069927397783810e-01
1.738632021398547889e-01
1.738632021398547889e-01
1.669850974398165711e-01
1.669850974398165711e-01
1.669850974398165711e-01
1.780664883454337044e-01
1.780664883454337044e-01
1.635460450897974760e-01
1.635460450897974760e-01
1.635460450897974760e-01
1.742453190676346853e-01
1.742453190676346853e-01
1.788307222009934971e-01
1.788307222009934971e-01
1.788307222009934971e-01
1.650745128009170892e-01
1.650745128009170892e-01
1.692777990064959770e-01
1.692777990064959770e-01
1.692777990064959770e-01
1.822697745510126199e-01
1.822697745510126199e-01
1.696599159342759011e-01
1.696599159342759011e-01
1.696599159342759011e-01
1.715705005731753829e-01
1.715705005731753829e-01
1.646923958731371929e-01
1.646923958731371929e-01
1.646923958731371929e-01
1.826518914787925163e-01
1.826518914787925163e-01
1.761559037065341948e-01
1.761559037065341948e-01
1.761559037065341948e-01
1.635460450897974760e-01
1.635460450897974760e-01
1.711883836453954866e-01
1.711883836453954866e-01
1.708062667176155902e-01
1.708062667176155902e-01
1.708062667176155902e-01
1.696599159342759011e-01
1.696599159342759011e-01
1.708062667176155902e-01
1.708062667176155902e-01
1.708062667176155902e-01
1.639281620175773724e-01
1.639281620175773724e-01
1.597248758119984846e-01
1.597248758119984846e-01
1.597248758119984846e-01
1.669850974398165711e-01
1.669850974398165711e-01
1.627818112342376833e-01
1.627818112342376833e-01
1.627818112342376833e-01
1.792128391287733935e-01
1.792128391287733935e-01
1.807413068398930067e-01
1.807413068398930067e-01
1.807413068398930067e-01
1.658387466564768820e-01
1.658387466564768820e-01
1.673672143675964952e-01
1.673672143675964952e-01
1.673672143675964952e-01
1.616354604508979664e-01
1.616354604508979664e-01
1.685135651509361843e-01
1.685135651509361843e-01
1.685135651509361843e-01
1.643102789453572687e-01
1.643102789453572687e-01
1.635460450897974760e-01
1.635460450897974760e-01
1.635460450897974760e-01
1.604891096675582773e-01
1.604891096675582773e-01
1.608712265953381737e-01
1.608712265953381737e-01
1.608712265953381737e-01
1.669850974398165711e-01
1.669850974398165711e-01
1.708062667176155902e-01
1.708062667176155902e-01
1.708062667176155902e-01
1.692777990064959770e-01
1.692777990064959770e-01
1.631639281620175796e-01
1.631639281620175796e-01
1.631639281620175796e-01
1.662208635842567783e-01
1.662208635842567783e-01
1.620175773786778628e-01
1.620175773786778628e-01
1.620175773786778628e-01
1.646923958731371929e-01
1.646923958731371929e-01
1.757737867787542985e-01
1.757737867787542985e-01
1.757737867787542985e-01
1.746274359954146094e-01
1.746274359954146094e-01
1.780664883454337044e-01
1.780664883454337044e-01
1.780664883454337044e-01
1.761559037065341948e-01
1.761559037065341948e-01
1.753916698509744021e-01
1.753916698509744021e-01
1.753916698509744021e-01
1.750095529231945057e-01
1.750095529231945057e-01
1.711883836453954866e-01
1.711883836453954866e-01
1.711883836453954866e-01
1.704241497898356938e-01
1.704241497898356938e-01
1.700420328620557975e-01
1.700420328620557975e-01
1.700420328620557975e-01
1.803591899121131104e-01
1.803591899121131104e-01
1.738632021398547889e-01
1.738632021398547889e-01
1.738632021398547889e-01
1.765380206343140912e-01
1.765380206343140912e-01
1.784486052732136008e-01
1.784486052732136008e-01
1.784486052732136008e-01
1.776843714176538080e-01
1.776843714176538080e-01
1.696599159342759011e-01
1.696599159342759011e-01
1.696599159342759011e-01
1.673672143675964952e-01
1.673672143675964952e-01
1.681314482231562879e-01
1.681314482231562879e-01
1.681314482231562879e-01
1.688956820787160806e-01
1.688956820787160806e-01
1.738632021398547889e-01
1.738632021398547889e-01
1.738632021398547889e-01
1.719526175009552793e-01
1.719526175009552793e-01
1.650745128009170892e-01
1.650745128009170892e-01
1.650745128009170892e-01
1.627818112342376833e-01
1.627818112342376833e-01
1.578142911730989750e-01
1.578142911730989750e-01
1.578142911730989750e-01
1.631639281620175796e-01
1.631639281620175796e-01
1.692777990064959770e-01
1.692777990064959770e-01
1.692777990064959770e-01
1.578142911730989750e-01
1.578142911730989750e-01
1.715705005731753829e-01
1.715705005731753829e-01
1.715705005731753829e-01
1.704241497898356938e-01
1.704241497898356938e-01
1.692777990064959770e-01
1.692777990064959770e-01
1.692777990064959770e-01
1.620175773786778628e-01
1.620175773786778628e-01
1.807413068398930067e-01
1.807413068398930067e-01
1.807413068398930067e-01
1.669850974398165711e-01
1.669850974398165711e-01
1.761559037065341948e-01
1.761559037065341948e-01
1.761559037065341948e-01
1.669850974398165711e-01
1.669850974398165711e-01
1.692777990064959770e-01
1.692777990064959770e-01
1.692777990064959770e-01
1.639281620175773724e-01
1.639281620175773724e-01
1.612533435231180701e-01
1.612533435231180701e-01
1.612533435231180701e-01
1.623996943064577869e-01
1.623996943064577869e-01
1.761559037065341948e-01
1.761559037065341948e-01
1.761559037065341948e-01
1.765380206343140912e-01
1.765380206343140912e-01
1.750095529231945057e-01
1.750095529231945057e-01
1.750095529231945057e-01
1.650745128009170892e-01
1.650745128009170892e-01
1.826518914787925163e-01
1.826518914787925163e-01
1.826518914787925163e-01
1.696599159342759011e-01
1.696599159342759011e-01
1.750095529231945057e-01
1.750095529231945057e-01
1.750095529231945057e-01
1.815055406954527994e-01
1.815055406954527994e-01
1.704241497898356938e-01
1.704241497898356938e-01
1.704241497898356938e-01
1.792128391287733935e-01
1.792128391287733935e-01
1.784486052732136008e-01
1.784486052732136008e-01
1.784486052732136008e-01
1.769201375620939876e-01
1.769201375620939876e-01
1.906763469621704232e-01
1.906763469621704232e-01
1.906763469621704232e-01
1.860909438288116113e-01
1.860909438288116113e-01
1.983186855177684338e-01
1.983186855177684338e-01
1.983186855177684338e-01
1.941153993121895183e-01
1.941153993121895183e-01
2.002292701566679434e-01
2.002292701566679434e-01
2.002292701566679434e-01
1.987008024455483302e-01
1.987008024455483302e-01
2.086358425678257467e-01
2.086358425678257467e-01
2.097821933511654635e-01
2.097821933511654635e-01
2.097821933511654635e-01
2.231562858234619751e-01
2.231562858234619751e-01
2.296522735957202965e-01
2.296522735957202965e-01
2.296522735957202965e-01
2.254489873901413810e-01
2.254489873901413810e-01
2.399694306457776094e-01
2.399694306457776094e-01
2.399694306457776094e-01
2.395873137179977130e-01
2.395873137179977130e-01
2.464654184180359309e-01
2.464654184180359309e-01
2.464654184180359309e-01
2.541077569736339137e-01
2.541077569736339137e-01
2.483760030569354127e-01
2.483760030569354127e-01
2.483760030569354127e-01
2.655712648070309712e-01
2.655712648070309712e-01
2.617500955292319520e-01
2.617500955292319520e-01
2.617500955292319520e-01
2.793274742071073513e-01
2.793274742071073513e-01
2.804738249904470959e-01
2.804738249904470959e-01
2.804738249904470959e-01
2.789453572793274549e-01
2.789453572793274549e-01
3.011081390905617217e-01
3.011081390905617217e-01
3.011081390905617217e-01
3.083683607183798081e-01
3.083683607183798081e-01
2.915552158960642015e-01
2.915552158960642015e-01
2.915552158960642015e-01
3.030187237294612035e-01
3.030187237294612035e-01
3.156285823461979501e-01
3.156285823461979501e-01
3.156285823461979501e-01
3.205961024073366583e-01
3.205961024073366583e-01
3.324417271685135566e-01
3.324417271685135566e-01
3.324417271685135566e-01
3.339701948796331421e-01
3.339701948796331421e-01
3.335880779518532457e-01
3.335880779518532457e-01
3.335880779518532457e-01
3.408482995796713877e-01
3.408482995796713877e-01
3.481085212074894741e-01
3.481085212074894741e-01
3.481085212074894741e-01
3.446694688574704069e-01
3.446694688574704069e-01
3.492548719908292187e-01
3.492548719908292187e-01
3.492548719908292187e-01
3.706534199465036372e-01
3.706534199465036372e-01
3.656858998853649290e-01
3.656858998853649290e-01
3.656858998853649290e-01
3.656858998853649290e-01
3.656858998853649290e-01
3.668322506687046181e-01
3.668322506687046181e-01
3.668322506687046181e-01
3.805884600687810537e-01
3.805884600687810537e-01
3.867023309132594511e-01
3.867023309132594511e-01
3.867023309132594511e-01
3.905235001910584702e-01
3.905235001910584702e-01
3.752388230798624491e-01
3.752388230798624491e-01
3.752388230798624491e-01
3.805884600687810537e-01
3.805884600687810537e-01
3.981658387466564530e-01
3.981658387466564530e-01
3.981658387466564530e-01
3.859380970576996583e-01
3.859380970576996583e-01
3.901413832632785739e-01
3.901413832632785739e-01
3.901413832632785739e-01
3.889950324799388848e-01
3.889950324799388848e-01
4.050439434466946986e-01
4.050439434466946986e-01
4.050439434466946986e-01
4.058081773022544914e-01
4.058081773022544914e-01
4.058081773022544914e-01
4.058081773022544914e-01
4.058081773022544914e-01
4.149789835689721151e-01
4.149789835689721151e-01
4.149789835689721151e-01
4.149789835689721151e-01
4.149789835689721151e-01
4.161253343523118042e-01
4.161253343523118042e-01
4.153611004967520115e-01
4.153611004967520115e-01
4.153611004967520115e-01
4.191822697745510307e-01
4.191822697745510307e-01
4.249140236912495316e-01
4.249140236912495316e-01
4.249140236912495316e-01
4.134505158578525297e-01
4.134505158578525297e-01
4.149789835689721151e-01
4.149789835689721151e-01
4.149789835689721151e-01
4.199465036301108234e-01
4.199465036301108234e-01
4.153611004967520115e-01
4.153611004967520115e-01
4.153611004967520115e-01
4.310278945357279290e-01
4.310278945357279290e-01
4.291173098968284472e-01
4.291173098968284472e-01
4.291173098968284472e-01
4.203286205578907198e-01
4.203286205578907198e-01
4.249140236912495316e-01
4.249140236912495316e-01
4.249140236912495316e-01
4.367596484524264300e-01
4.367596484524264300e-01
4.226213221245700979e-01
4.226213221245700979e-01
4.226213221245700979e-01
4.230034390523499943e-01
4.230034390523499943e-01
4.352311807413068445e-01
4.352311807413068445e-01
4.352311807413068445e-01
4.298815437523882399e-01
4.298815437523882399e-01
4.207107374856706161e-01
4.207107374856706161e-01
4.207107374856706161e-01
4.302636606801681363e-01
4.302636606801681363e-01
4.329384791746274108e-01
4.329384791746274108e-01
4.329384791746274108e-01
4.356132976690867409e-01
4.356132976690867409e-01
4.371417653802063263e-01
4.371417653802063263e-01
4.371417653802063263e-01
4.264424914023691171e-01
4.264424914023691171e-01
4.199465036301108234e-01
4.199465036301108234e-01
4.199465036301108234e-01
4.298815437523882399e-01
4.298815437523882399e-01
4.203286205578907198e-01
4.203286205578907198e-01
4.203286205578907198e-01
4.367596484524264300e-01
4.367596484524264300e-01
4.256782575468093244e-01
4.256782575468093244e-01
4.256782575468093244e-01
4.317921283912877217e-01
4.317921283912877217e-01
4.176538020634313897e-01
4.176538020634313897e-01
4.176538020634313897e-01
4.207107374856706161e-01
4.207107374856706161e-01
4.207107374856706161e-01
4.207107374856706161e-01
4.207107374856706161e-01
4.168895682078715970e-01
4.168895682078715970e-01
4.168895682078715970e-01
4.168895682078715970e-01
4.168895682078715970e-01
4.218570882690103052e-01
4.218570882690103052e-01
4.275888421857088062e-01
4.275888421857088062e-01
4.275888421857088062e-01
4.153611004967520115e-01
4.153611004967520115e-01
4.264424914023691171e-01
4.264424914023691171e-01
4.199465036301108234e-01
4.199465036301108234e-01
4.199465036301108234e-01
4.180359189912112861e-01
4.180359189912112861e-01
4.191822697745510307e-01
4.191822697745510307e-01
4.191822697745510307e-01
4.115399312189529923e-01
4.115399312189529923e-01
4.008406572411157831e-01
4.008406572411157831e-01
4.008406572411157831e-01
4.134505158578525297e-01
4.134505158578525297e-01
4.134505158578525297e-01
4.134505158578525297e-01
4.134505158578525297e-01
4.081008788689338695e-01
4.081008788689338695e-01
4.031333588077951613e-01
4.031333588077951613e-01
4.031333588077951613e-01
4.073366450133740768e-01
4.073366450133740768e-01
4.065724111578142841e-01
4.065724111578142841e-01
4.065724111578142841e-01
3.920519679021780557e-01
3.920519679021780557e-01
3.966373710355368676e-01
3.966373710355368676e-01
3.966373710355368676e-01
3.928162017577378484e-01
3.928162017577378484e-01
3.920519679021780557e-01
3.920519679021780557e-01
3.920519679021780557e-01
3.947267863966373858e-01
3.947267863966373858e-01
3.931983186855177448e-01
3.931983186855177448e-01
3.931983186855177448e-01
3.851738632021398656e-01
3.851738632021398656e-01
3.717997707298433263e-01
3.717997707298433263e-01
3.717997707298433263e-01
3.717997707298433263e-01
3.717997707298433263e-01
3.748567061520825527e-01
3.748567061520825527e-01
3.748567061520825527e-01
3.706534199465036372e-01
3.706534199465036372e-01
3.645395491020252399e-01
3.645395491020252399e-01
3.645395491020252399e-01
3.702713030187237409e-01
3.702713030187237409e-01
3.538402751241879751e-01
3.538402751241879751e-01
3.538402751241879751e-01
3.611004967520061171e-01
3.611004967520061171e-01
3.576614444019869943e-01
3.576614444019869943e-01
3.576614444019869943e-01
3.454337027130301996e-01
3.454337027130301996e-01
3.572793274742070979e-01
3.572793274742070979e-01
3.572793274742070979e-01
3.488727550630492669e-01
3.488727550630492669e-01
3.335880779518532457e-01
3.335880779518532457e-01
3.335880779518532457e-01
3.362628964463125758e-01
3.362628964463125758e-01
3.431410011463507659e-01
3.431410011463507659e-01
3.431410011463507659e-01
3.236530378295758292e-01
3.236530378295758292e-01
3.312953763851738676e-01
3.312953763851738676e-01
3.312953763851738676e-01
3.251815055406954702e-01
3.251815055406954702e-01
3.205961024073366583e-01
3.205961024073366583e-01
3.205961024073366583e-01
3.163928162017577428e-01
3.163928162017577428e-01
3.156285823461979501e-01
3.156285823461979501e-01
3.156285823461979501e-01
3.148643484906381573e-01
3.148643484906381573e-01
3.064577760794803263e-01
3.064577760794803263e-01
3.064577760794803263e-01
3.026366068016813071e-01
3.026366068016813071e-01
3.034008406572410999e-01
3.034008406572410999e-01
3.034008406572410999e-01
3.034008406572410999e-01
3.034008406572410999e-01
2.892625143293847678e-01
2.892625143293847678e-01
2.892625143293847678e-01
2.862055789071455969e-01
2.862055789071455969e-01
2.911730989682843052e-01
2.911730989682843052e-01
2.911730989682843052e-01
2.934658005349636833e-01
2.934658005349636833e-01
2.735957202904088503e-01
2.735957202904088503e-01
2.735957202904088503e-01
2.735957202904088503e-01
2.735957202904088503e-01
2.862055789071455969e-01
2.862055789071455969e-01
2.862055789071455969e-01
2.804738249904470959e-01
2.804738249904470959e-01
2.678639663737103493e-01
2.678639663737103493e-01
2.678639663737103493e-01
2.663354986625907639e-01
2.663354986625907639e-01
2.804738249904470959e-01
2.804738249904470959e-01
2.804738249904470959e-01
2.655712648070309712e-01
2.655712648070309712e-01
2.644249140236912266e-01
2.644249140236912266e-01
2.644249140236912266e-01
2.655712648070309712e-01
2.655712648070309712e-01
2.556362246847535546e-01
2.556362246847535546e-01
2.556362246847535546e-01
2.628964463125716411e-01
2.628964463125716411e-01
2.651891478792510748e-01
2.651891478792510748e-01
2.651891478792510748e-01
2.506687046236148464e-01
2.506687046236148464e-01
2.506687046236148464e-01
2.506687046236148464e-01
2.506687046236148464e-01
2.541077569736339137e-01
2.541077569736339137e-01
2.560183416125334510e-01
2.560183416125334510e-01
2.560183416125334510e-01
2.613679786014520556e-01
2.613679786014520556e-01
2.453190676346962140e-01
2.453190676346962140e-01
2.453190676346962140e-01
2.552541077569736583e-01
2.552541077569736583e-01
2.529614061902942246e-01
2.529614061902942246e-01
2.529614061902942246e-01
2.380588460068780998e-01
2.380588460068780998e-01
2.453190676346962140e-01
2.453190676346962140e-01
2.453190676346962140e-01
2.575468093236530365e-01
2.575468093236530365e-01
2.567825754680932437e-01
2.567825754680932437e-01
2.567825754680932437e-01
2.403515475735575058e-01
2.403515475735575058e-01
2.529614061902942246e-01
2.529614061902942246e-01
2.529614061902942246e-01
2.441727168513565249e-01
2.441727168513565249e-01
2.529614061902942246e-01
2.529614061902942246e-01
2.529614061902942246e-01
2.437905999235766008e-01
2.437905999235766008e-01
2.476117692013756200e-01
2.476117692013756200e-01
2.476117692013756200e-01
2.434084829957967044e-01
2.434084829957967044e-01
2.430263660680168081e-01
2.430263660680168081e-01
2.414978983568972226e-01
2.414978983568972226e-01
2.414978983568972226e-01
2.319449751623997025e-01
2.319449751623997025e-01
2.304165074512800893e-01
2.304165074512800893e-01
2.304165074512800893e-01
2.265953381734810979e-01
2.265953381734810979e-01
2.399694306457776094e-01
2.399694306457776094e-01
2.399694306457776094e-01
2.437905999235766008e-01
2.437905999235766008e-01
2.384409629346579962e-01
2.384409629346579962e-01
2.384409629346579962e-01
2.307986243790599856e-01
2.307986243790599856e-01
2.384409629346579962e-01
2.384409629346579962e-01
2.384409629346579962e-01
2.353840275124187975e-01
2.353840275124187975e-01
2.200993504012227764e-01
2.200993504012227764e-01
2.200993504012227764e-01
2.292701566679404002e-01
2.292701566679404002e-01
2.296522735957202965e-01
2.296522735957202965e-01
2.296522735957202965e-01
2.307986243790599856e-01
2.307986243790599856e-01
2.162781811234237572e-01
2.162781811234237572e-01
2.162781811234237572e-01
2.220099350401222860e-01
2.220099350401222860e-01
2.269774551012609942e-01
2.269774551012609942e-01
2.269774551012609942e-01
2.281238058846006833e-01
2.281238058846006833e-01
2.208635842567825691e-01
2.208635842567825691e-01
2.208635842567825691e-01
2.136033626289644549e-01
2.136033626289644549e-01
2.262132212457011737e-01
2.262132212457011737e-01
2.262132212457011737e-01
2.223920519679021823e-01
2.223920519679021823e-01
2.158960641956438609e-01
2.158960641956438609e-01
2.158960641956438609e-01
2.147497134123041718e-01
2.147497134123041718e-01
2.170424149789835777e-01
2.170424149789835777e-01
2.170424149789835777e-01
2.109285441345051526e-01
2.109285441345051526e-01
2.128391287734046622e-01
2.128391287734046622e-01
2.128391287734046622e-01
2.063431410011463407e-01
2.063431410011463407e-01
2.101643102789453599e-01
2.101643102789453599e-01
2.101643102789453599e-01
2.231562858234619751e-01
2.231562858234619751e-01
2.216278181123423896e-01
2.216278181123423896e-01
2.216278181123423896e-01
2.082537256400458503e-01
2.082537256400458503e-01
2.074894917844860576e-01
2.074894917844860576e-01
2.074894917844860576e-01
2.197172334734428800e-01
2.197172334734428800e-01
2.139854795567443513e-01
2.139854795567443513e-01
2.139854795567443513e-01
2.097821933511654635e-01
2.097821933511654635e-01
2.090179594956056430e-01
2.090179594956056430e-01
2.090179594956056430e-01
2.220099350401222860e-01
2.220099350401222860e-01
2.074894917844860576e-01
2.074894917844860576e-01
2.074894917844860576e-01
1.979365685899885374e-01
1.979365685899885374e-01
1.979365685899885374e-01
1.979365685899885374e-01
1.979365685899885374e-01
2.017577378677875566e-01
2.017577378677875566e-01
1.983186855177684338e-01
1.983186855177684338e-01
1.983186855177684338e-01
2.074894917844860576e-01
2.074894917844860576e-01
1.975544516622086411e-01
1.975544516622086411e-01
1.975544516622086411e-01
1.941153993121895183e-01
1.941153993121895183e-01
2.094000764233855671e-01
2.094000764233855671e-01
2.094000764233855671e-01
2.055789071455865480e-01
2.055789071455865480e-01
1.990829193733282265e-01
1.990829193733282265e-01
1.990829193733282265e-01
2.086358425678257467e-01
2.086358425678257467e-01
2.101643102789453599e-01
2.101643102789453599e-01
2.101643102789453599e-01
2.036683225066870384e-01
2.036683225066870384e-01
2.063431410011463407e-01
2.063431410011463407e-01
2.063431410011463407e-01
2.002292701566679434e-01
2.002292701566679434e-01
1.994650363011081506e-01
1.994650363011081506e-01
1.994650363011081506e-01
1.910584638899503196e-01
1.910584638899503196e-01
1.937332823844096219e-01
1.937332823844096219e-01
1.937332823844096219e-01
1.971723347344287447e-01
1.971723347344287447e-01
1.941153993121895183e-01
1.941153993121895183e-01
1.941153993121895183e-01
2.017577378677875566e-01
2.017577378677875566e-01
1.845624761176920259e-01
1.845624761176920259e-01
1.845624761176920259e-01
1.925869316010699328e-01
1.925869316010699328e-01
1.799770729843332140e-01
1.799770729843332140e-01
1.799770729843332140e-01
1.929690485288498292e-01
1.929690485288498292e-01
1.811234237676729031e-01
1.811234237676729031e-01
1.811234237676729031e-01
1.895299961788307341e-01
1.895299961788307341e-01
1.795949560565533176e-01
1.795949560565533176e-01
1.795949560565533176e-01
1.929690485288498292e-01
1.929690485288498292e-01
1.983186855177684338e-01
1.983186855177684338e-01
1.983186855177684338e-01
1.818876576232326958e-01
1.818876576232326958e-01
1.876194115399312246e-01
1.876194115399312246e-01
1.876194115399312246e-01
1.795949560565533176e-01
1.795949560565533176e-01
1.746274359954146094e-01
1.746274359954146094e-01
1.746274359954146094e-01
1.925869316010699328e-01
1.925869316010699328e-01
1.750095529231945057e-01
1.750095529231945057e-01
1.750095529231945057e-01
1.815055406954527994e-01
1.815055406954527994e-01
1.937332823844096219e-01
1.937332823844096219e-01
1.937332823844096219e-01
1.857088269010317150e-01
1.857088269010317150e-01
1.818876576232326958e-01
1.818876576232326958e-01
1.818876576232326958e-01
1.765380206343140912e-01
1.765380206343140912e-01
1.975544516622086411e-01
1.975544516622086411e-01
1.895299961788307341e-01
1.895299961788307341e-01
1.895299961788307341e-01
1.750095529231945057e-01
1.750095529231945057e-01
1.826518914787925163e-01
1.826518914787925163e-01
1.826518914787925163e-01
1.899121131066106305e-01
1.899121131066106305e-01
1.738632021398547889e-01
1.738632021398547889e-01
1.738632021398547889e-01
1.883836453954910173e-01
1.883836453954910173e-01
1.738632021398547889e-01
1.738632021398547889e-01
1.738632021398547889e-01
1.887657623232709136e-01
1.887657623232709136e-01
1.746274359954146094e-01
1.746274359954146094e-01
1.746274359954146094e-01
1.822697745510126199e-01
1.822697745510126199e-01
1.742453190676346853e-01
1.742453190676346853e-01
1.742453190676346853e-01
1.715705005731753829e-01
1.715705005731753829e-01
1.757737867787542985e-01
1.757737867787542985e-01
1.757737867787542985e-01
1.715705005731753829e-01
1.715705005731753829e-01
1.899121131066106305e-01
1.899121131066106305e-01
1.899121131066106305e-01
1.860909438288116113e-01
1.860909438288116113e-01
1.815055406954527994e-01
1.815055406954527994e-01
1.815055406954527994e-01
1.727168513565150998e-01
1.727168513565150998e-01
1.727168513565150998e-01
1.727168513565150998e-01
1.727168513565150998e-01
1.692777990064959770e-01
1.692777990064959770e-01
1.830340084065724127e-01
1.830340084065724127e-01
1.830340084065724127e-01
1.711883836453954866e-01
1.711883836453954866e-01
1.788307222009934971e-01
1.788307222009934971e-01
1.788307222009934971e-01
1.807413068398930067e-01
1.807413068398930067e-01
1.849445930454719222e-01
1.849445930454719222e-01
1.849445930454719222e-01
1.822697745510126199e-01
1.822697745510126199e-01
1.742453190676346853e-01
1.742453190676346853e-01
1.742453190676346853e-01
1.818876576232326958e-01
1.818876576232326958e-01
1.734810852120748925e-01
1.734810852120748925e-01
1.734810852120748925e-01
1.837982422621322054e-01
1.837982422621322054e-01
1.780664883454337044e-01
1.780664883454337044e-01
1.780664883454337044e-01
1.681314482231562879e-01
1.681314482231562879e-01
1.803591899121131104e-01
1.803591899121131104e-01
1.803591899121131104e-01
1.818876576232326958e-01
1.818876576232326958e-01
1.654566297286969856e-01
1.654566297286969856e-01
1.654566297286969856e-01
1.673672143675964952e-01
1.673672143675964952e-01
1.673672143675964952e-01
1.673672143675964952e-01
1.673672143675964952e-01
1.857088269010317150e-01
1.857088269010317150e-01
1.666029805120366747e-01
1.666029805120366747e-01
1.666029805120366747e-01
1.692777990064959770e-01
1.692777990064959770e-01
1.822697745510126199e-01
1.822697745510126199e-01
1.822697745510126199e-01
1.753916698509744021e-01
1.753916698509744021e-01
1.704241497898356938e-01
1.704241497898356938e-01
1.704241497898356938e-01
1.704241497898356938e-01
1.704241497898356938e-01
1.803591899121131104e-01
1.803591899121131104e-01
1.803591899121131104e-01
1.643102789453572687e-01
1.643102789453572687e-01
1.612533435231180701e-01
1.612533435231180701e-01
1.612533435231180701e-01
1.807413068398930067e-01
1.807413068398930067e-01
1.612533435231180701e-01
1.612533435231180701e-01
1.612533435231180701e-01
1.700420328620557975e-01
1.700420328620557975e-01
1.666029805120366747e-01
1.666029805120366747e-01
1.666029805120366747e-01
1.711883836453954866e-01
1.711883836453954866e-01
1.623996943064577869e-01
1.623996943064577869e-01
1.623996943064577869e-01
1.639281620175773724e-01
1.639281620175773724e-01
1.730989682842949962e-01
1.730989682842949962e-01
1.730989682842949962e-01
1.746274359954146094e-01
1.746274359954146094e-01
1.620175773786778628e-01
1.620175773786778628e-01
1.620175773786778628e-01
1.692777990064959770e-01
1.692777990064959770e-01
1.623996943064577869e-01
1.623996943064577869e-01
1.623996943064577869e-01
1.700420328620557975e-01
1.700420328620557975e-01
1.708062667176155902e-01
1.708062667176155902e-01
1.708062667176155902e-01
1.727168513565150998e-01
1.727168513565150998e-01
1.616354604508979664e-01
1.616354604508979664e-01
1.616354604508979664e-01
1.601069927397783810e-01
1.601069927397783810e-01
1.730989682842949962e-01
1.730989682842949962e-01
1.730989682842949962e-01
1.623996943064577869e-01
1.623996943064577869e-01
1.631639281620175796e-01
1.631639281620175796e-01
1.631639281620175796e-01
1.658387466564768820e-01
1.658387466564768820e-01
1.700420328620557975e-01
1.700420328620557975e-01
1.700420328620557975e-01
1.677493312953763915e-01
1.677493312953763915e-01
1.608712265953381737e-01
1.608712265953381737e-01
1.608712265953381737e-01
1.696599159342759011e-01
1.696599159342759011e-01
1.688956820787160806e-01
1.688956820787160806e-01
1.688956820787160806e-01
1.715705005731753829e-01
1.715705005731753829e-01
1.623996943064577869e-01
1.623996943064577869e-01
1.623996943064577869e-01
1.685135651509361843e-01
1.685135651509361843e-01
1.673672143675964952e-01
1.673672143675964952e-01
1.673672143675964952e-01
1.730989682842949962e-01
1.730989682842949962e-01
1.723347344287352034e-01
1.723347344287352034e-01
1.723347344287352034e-01
1.742453190676346853e-01
1.742453190676346853e-01
1.746274359954146094e-01
1.746274359954146094e-01
1.746274359954146094e-01
1.830340084065724127e-01
1.830340084065724127e-01
1.750095529231945057e-01
1.750095529231945057e-01
1.792128391287733935e-01
1.792128391287733935e-01
1.792128391287733935e-01
1.738632021398547889e-01
1.738632021398547889e-01
1.742453190676346853e-01
1.742453190676346853e-01
1.742453190676346853e-01
