1.547573557508597764e-01
1.547573557508597764e-01
1.509361864730607572e-01
1.509361864730607572e-01
1.509361864730607572e-01
1.528467711119602668e-01
1.528467711119602668e-01
1.539931218952999559e-01
1.539931218952999559e-01
1.539931218952999559e-01
1.543752388230798522e-01
1.543752388230798522e-01
1.501719526175009645e-01
1.501719526175009645e-01
1.501719526175009645e-01
1.604891096675582773e-01
1.604891096675582773e-01
1.570500573175391545e-01
1.570500573175391545e-01
1.570500573175391545e-01
1.585785250286587678e-01
1.585785250286587678e-01
1.604891096675582773e-01
1.604891096675582773e-01
1.604891096675582773e-01
1.616354604508979664e-01
1.616354604508979664e-01
1.494077187619411440e-01
1.494077187619411440e-01
1.494077187619411440e-01
1.494077187619411440e-01
1.494077187619411440e-01
1.517004203286205499e-01
1.517004203286205499e-01
1.517004203286205499e-01
1.440580817730225394e-01
1.440580817730225394e-01
1.509361864730607572e-01
1.509361864730607572e-01
1.509361864730607572e-01
1.551394726786396727e-01
1.551394726786396727e-01
1.474971341230416622e-01
1.474971341230416622e-01
1.474971341230416622e-01
1.478792510508215585e-01
1.478792510508215585e-01
1.471150171952617380e-01
1.471150171952617380e-01
1.471150171952617380e-01
1.474971341230416622e-01
1.474971341230416622e-01
1.455865494841421526e-01
1.455865494841421526e-01
1.455865494841421526e-01
1.448223156285823598e-01
1.448223156285823598e-01
1.459686664119220489e-01
1.459686664119220489e-01
1.459686664119220489e-01
1.448223156285823598e-01
1.448223156285823598e-01
1.566679403897592582e-01
1.566679403897592582e-01
1.566679403897592582e-01
1.375620940007642456e-01
1.375620940007642456e-01
1.501719526175009645e-01
1.501719526175009645e-01
1.501719526175009645e-01
1.448223156285823598e-01
1.448223156285823598e-01
1.520825372564004463e-01
1.520825372564004463e-01
1.520825372564004463e-01
1.471150171952617380e-01
1.471150171952617380e-01
1.455865494841421526e-01
1.455865494841421526e-01
1.455865494841421526e-01
1.593427588842185605e-01
1.593427588842185605e-01
1.536110049675200595e-01
1.536110049675200595e-01
1.536110049675200595e-01
1.639281620175773724e-01
1.639281620175773724e-01
1.551394726786396727e-01
1.551394726786396727e-01
1.551394726786396727e-01
1.581964081008788714e-01
1.581964081008788714e-01
1.612533435231180701e-01
1.612533435231180701e-01
1.612533435231180701e-01
1.658387466564768820e-01
1.658387466564768820e-01
1.673672143675964952e-01
1.673672143675964952e-01
1.673672143675964952e-01
1.788307222009934971e-01
1.788307222009934971e-01
1.811234237676729031e-01
1.811234237676729031e-01
1.811234237676729031e-01
1.792128391287733935e-01
1.792128391287733935e-01
1.933511654566297255e-01
1.933511654566297255e-01
1.933511654566297255e-01
1.864730607565915077e-01
1.864730607565915077e-01
1.994650363011081506e-01
1.994650363011081506e-01
2.155139472678639645e-01
2.155139472678639645e-01
2.155139472678639645e-01
2.094000764233855671e-01
2.094000764233855671e-01
2.204814673290026728e-01
2.204814673290026728e-01
2.204814673290026728e-01
2.388230798624378926e-01
2.388230798624378926e-01
2.430263660680168081e-01
2.430263660680168081e-01
2.430263660680168081e-01
2.445548337791364213e-01
2.445548337791364213e-01
2.636606801681314338e-01
2.636606801681314338e-01
2.636606801681314338e-01
2.697745510126098312e-01
2.697745510126098312e-01
2.823844096293465777e-01
2.823844096293465777e-01
2.823844096293465777e-01
2.827665265571264741e-01
2.827665265571264741e-01
2.957585021016431170e-01
2.957585021016431170e-01
2.957585021016431170e-01
3.079862437905999117e-01
3.079862437905999117e-01
3.121895299961788273e-01
3.121895299961788273e-01
3.121895299961788273e-01
3.217424531906763474e-01
3.217424531906763474e-01
3.309132594573939712e-01
3.309132594573939712e-01
3.309132594573939712e-01
3.397019487963316986e-01
3.397019487963316986e-01
3.450515857852503032e-01
3.450515857852503032e-01
3.450515857852503032e-01
3.450515857852503032e-01
3.450515857852503032e-01
3.546045089797478234e-01
3.546045089797478234e-01
3.546045089797478234e-01
3.717997707298433263e-01
3.717997707298433263e-01
3.717997707298433263e-01
3.717997707298433263e-01
3.717997707298433263e-01
3.767672907909820346e-01
3.767672907909820346e-01
3.794421092854413646e-01
3.794421092854413646e-01
3.794421092854413646e-01
3.882307986243790365e-01
3.882307986243790365e-01
3.859380970576996583e-01
3.859380970576996583e-01
3.859380970576996583e-01
3.993121895299961976e-01
3.993121895299961976e-01
3.981658387466564530e-01
3.981658387466564530e-01
3.981658387466564530e-01
4.042797095911349059e-01
4.042797095911349059e-01
4.054260603744745950e-01
4.054260603744745950e-01
4.054260603744745950e-01
4.000764233855559904e-01
4.000764233855559904e-01
4.054260603744745950e-01
4.054260603744745950e-01
4.054260603744745950e-01
4.058081773022544914e-01
4.058081773022544914e-01
4.069545280855941805e-01
4.069545280855941805e-01
4.069545280855941805e-01
4.165074512800917006e-01
4.165074512800917006e-01
4.184180359189912379e-01
4.184180359189912379e-01
4.184180359189912379e-01
4.119220481467328887e-01
4.119220481467328887e-01
4.134505158578525297e-01
4.134505158578525297e-01
4.134505158578525297e-01
4.103935804356133032e-01
4.103935804356133032e-01
4.119220481467328887e-01
4.119220481467328887e-01
4.119220481467328887e-01
4.176538020634313897e-01
4.176538020634313897e-01
4.050439434466946986e-01
4.050439434466946986e-01
4.050439434466946986e-01
4.149789835689721151e-01
4.149789835689721151e-01
4.165074512800917006e-01
4.165074512800917006e-01
4.165074512800917006e-01
4.115399312189529923e-01
4.115399312189529923e-01
4.119220481467328887e-01
4.119220481467328887e-01
4.119220481467328887e-01
4.145968666411922188e-01
4.145968666411922188e-01
3.977837218188765567e-01
3.977837218188765567e-01
3.977837218188765567e-01
4.016048910966755758e-01
4.016048910966755758e-01
3.962552541077569712e-01
3.962552541077569712e-01
3.962552541077569712e-01
4.008406572411157831e-01
4.008406572411157831e-01
4.008406572411157831e-01
4.008406572411157831e-01
4.008406572411157831e-01
4.031333588077951613e-01
4.031333588077951613e-01
4.008406572411157831e-01
4.008406572411157831e-01
4.008406572411157831e-01
3.901413832632785739e-01
3.901413832632785739e-01
4.027512418800152649e-01
4.027512418800152649e-01
4.027512418800152649e-01
4.065724111578142841e-01
4.065724111578142841e-01
3.889950324799388848e-01
3.889950324799388848e-01
3.889950324799388848e-01
3.901413832632785739e-01
3.901413832632785739e-01
3.901413832632785739e-01
3.901413832632785739e-01
3.901413832632785739e-01
3.924340848299579521e-01
3.924340848299579521e-01
3.943446694688574894e-01
3.943446694688574894e-01
3.943446694688574894e-01
3.855559801299197620e-01
3.855559801299197620e-01
3.916698509743981593e-01
3.916698509743981593e-01
3.916698509743981593e-01
3.912877340466182630e-01
3.912877340466182630e-01
3.782957585021016200e-01
3.782957585021016200e-01
3.782957585021016200e-01
3.847917462743599692e-01
3.847917462743599692e-01
3.821169277799006392e-01
3.821169277799006392e-01
3.821169277799006392e-01
3.889950324799388848e-01
3.889950324799388848e-01
3.847917462743599692e-01
3.847917462743599692e-01
3.847917462743599692e-01
3.824990447076805355e-01
3.824990447076805355e-01
3.782957585021016200e-01
3.782957585021016200e-01
3.782957585021016200e-01
3.721818876576232227e-01
3.721818876576232227e-01
3.794421092854413646e-01
3.794421092854413646e-01
3.794421092854413646e-01
3.672143675964845144e-01
3.672143675964845144e-01
3.725640045854031190e-01
3.725640045854031190e-01
3.725640045854031190e-01
3.779136415743217237e-01
3.779136415743217237e-01
3.744745892243026564e-01
3.744745892243026564e-01
3.744745892243026564e-01
3.607183798242262207e-01
3.607183798242262207e-01
3.675964845242644108e-01
3.675964845242644108e-01
3.675964845242644108e-01
3.675964845242644108e-01
3.675964845242644108e-01
3.721818876576232227e-01
3.721818876576232227e-01
3.607183798242262207e-01
3.607183798242262207e-01
3.607183798242262207e-01
3.591899121131066352e-01
3.591899121131066352e-01
3.641574321742453435e-01
3.641574321742453435e-01
3.641574321742453435e-01
3.549866259075277197e-01
3.549866259075277197e-01
3.611004967520061171e-01
3.611004967520061171e-01
3.611004967520061171e-01
3.519296904852884933e-01
3.519296904852884933e-01
3.595720290408865316e-01
3.595720290408865316e-01
3.595720290408865316e-01
3.591899121131066352e-01
3.591899121131066352e-01
3.588077951853266834e-01
3.588077951853266834e-01
3.588077951853266834e-01
3.492548719908292187e-01
3.492548719908292187e-01
3.488727550630492669e-01
3.488727550630492669e-01
3.488727550630492669e-01
3.511654566297287006e-01
3.511654566297287006e-01
3.450515857852503032e-01
3.450515857852503032e-01
3.450515857852503032e-01
3.565150936186473052e-01
3.565150936186473052e-01
3.412304165074512841e-01
3.412304165074512841e-01
3.412304165074512841e-01
3.488727550630492669e-01
3.488727550630492669e-01
3.523118074130683897e-01
3.523118074130683897e-01
3.523118074130683897e-01
3.347344287351929903e-01
3.347344287351929903e-01
3.354986625907527831e-01
3.354986625907527831e-01
3.354986625907527831e-01
3.377913641574321613e-01
3.377913641574321613e-01
3.423767672907909732e-01
3.423767672907909732e-01
3.423767672907909732e-01
3.316774933129537639e-01
3.316774933129537639e-01
3.259457393962552629e-01
3.259457393962552629e-01
3.259457393962552629e-01
3.351165456629728867e-01
3.351165456629728867e-01
3.274742071073748484e-01
3.274742071073748484e-01
3.274742071073748484e-01
3.305311425296140748e-01
3.305311425296140748e-01
3.156285823461979501e-01
3.156285823461979501e-01
3.156285823461979501e-01
3.194497516239969692e-01
3.194497516239969692e-01
3.121895299961788273e-01
3.121895299961788273e-01
3.121895299961788273e-01
3.160106992739778464e-01
3.160106992739778464e-01
3.110431792128391382e-01
3.110431792128391382e-01
3.110431792128391382e-01
2.969048528849828061e-01
2.969048528849828061e-01
3.026366068016813071e-01
3.026366068016813071e-01
3.026366068016813071e-01
3.034008406572410999e-01
3.034008406572410999e-01
2.961406190294230134e-01
2.961406190294230134e-01
2.961406190294230134e-01
2.927015666794038906e-01
2.927015666794038906e-01
2.835307604126862668e-01
2.835307604126862668e-01
2.835307604126862668e-01
2.812380588460068886e-01
2.812380588460068886e-01
2.793274742071073513e-01
2.793274742071073513e-01
2.793274742071073513e-01
2.797095911348873032e-01
2.797095911348873032e-01
2.743599541459686431e-01
2.743599541459686431e-01
2.743599541459686431e-01
2.846771111960260114e-01
2.846771111960260114e-01
2.728314864348490576e-01
2.728314864348490576e-01
2.728314864348490576e-01
2.682460833014902457e-01
2.682460833014902457e-01
2.682460833014902457e-01
2.682460833014902457e-01
2.682460833014902457e-01
2.636606801681314338e-01
2.636606801681314338e-01
2.640427970959113302e-01
2.640427970959113302e-01
2.640427970959113302e-01
2.678639663737103493e-01
2.678639663737103493e-01
2.571646923958731401e-01
2.571646923958731401e-01
2.571646923958731401e-01
2.678639663737103493e-01
2.678639663737103493e-01
2.583110431792128292e-01
2.583110431792128292e-01
2.583110431792128292e-01
2.602216278181123665e-01
2.602216278181123665e-01
2.552541077569736583e-01
2.552541077569736583e-01
2.552541077569736583e-01
2.625143293847917447e-01
2.625143293847917447e-01
2.564004585403133474e-01
2.564004585403133474e-01
2.564004585403133474e-01
2.583110431792128292e-01
2.583110431792128292e-01
2.529614061902942246e-01
2.529614061902942246e-01
2.529614061902942246e-01
2.464654184180359309e-01
2.464654184180359309e-01
2.544898739014138100e-01
2.544898739014138100e-01
2.544898739014138100e-01
2.476117692013756200e-01
2.476117692013756200e-01
2.544898739014138100e-01
2.544898739014138100e-01
2.544898739014138100e-01
2.529614061902942246e-01
2.529614061902942246e-01
2.514329384791746391e-01
2.514329384791746391e-01
2.514329384791746391e-01
2.483760030569354127e-01
2.483760030569354127e-01
2.506687046236148464e-01
2.506687046236148464e-01
2.506687046236148464e-01
2.556362246847535546e-01
2.556362246847535546e-01
2.460833014902560067e-01
2.460833014902560067e-01
2.460833014902560067e-01
2.434084829957967044e-01
2.434084829957967044e-01
2.464654184180359309e-01
2.464654184180359309e-01
2.464654184180359309e-01
2.334734428735192879e-01
2.334734428735192879e-01
2.388230798624378926e-01
2.388230798624378926e-01
2.388230798624378926e-01
2.414978983568972226e-01
2.414978983568972226e-01
2.453190676346962140e-01
2.453190676346962140e-01
2.453190676346962140e-01
2.395873137179977130e-01
2.395873137179977130e-01
2.399694306457776094e-01
2.399694306457776094e-01
2.399694306457776094e-01
2.376767290790982035e-01
2.376767290790982035e-01
2.495223538402751295e-01
2.495223538402751295e-01
2.495223538402751295e-01
2.323270920901795988e-01
2.323270920901795988e-01
2.346197936568590048e-01
2.346197936568590048e-01
2.346197936568590048e-01
2.453190676346962140e-01
2.453190676346962140e-01
2.434084829957967044e-01
2.434084829957967044e-01
2.372946121513183071e-01
2.372946121513183071e-01
2.372946121513183071e-01
2.319449751623997025e-01
2.319449751623997025e-01
2.392051967902178167e-01
2.392051967902178167e-01
2.392051967902178167e-01
2.403515475735575058e-01
2.403515475735575058e-01
2.342376767290791084e-01
2.342376767290791084e-01
2.342376767290791084e-01
2.430263660680168081e-01
2.430263660680168081e-01
2.327092090179594952e-01
2.327092090179594952e-01
2.327092090179594952e-01
2.319449751623997025e-01
2.319449751623997025e-01
2.353840275124187975e-01
2.353840275124187975e-01
2.353840275124187975e-01
2.338555598012991843e-01
2.338555598012991843e-01
2.220099350401222860e-01
2.220099350401222860e-01
2.220099350401222860e-01
2.319449751623997025e-01
2.319449751623997025e-01
2.262132212457011737e-01
2.262132212457011737e-01
2.262132212457011737e-01
2.296522735957202965e-01
2.296522735957202965e-01
2.281238058846006833e-01
2.281238058846006833e-01
2.281238058846006833e-01
2.239205196790217678e-01
2.239205196790217678e-01
2.262132212457011737e-01
2.262132212457011737e-01
2.262132212457011737e-01
2.227741688956820787e-01
2.227741688956820787e-01
2.227741688956820787e-01
2.227741688956820787e-01
2.227741688956820787e-01
2.204814673290026728e-01
2.204814673290026728e-01
2.158960641956438609e-01
2.158960641956438609e-01
2.158960641956438609e-01
2.185708826901031632e-01
2.185708826901031632e-01
2.132212457011845586e-01
2.132212457011845586e-01
2.132212457011845586e-01
2.143675964845242754e-01
2.143675964845242754e-01
2.116927779900649731e-01
2.116927779900649731e-01
2.116927779900649731e-01
2.059610240733664444e-01
2.059610240733664444e-01
2.132212457011845586e-01
2.132212457011845586e-01
2.132212457011845586e-01
2.048146732900267553e-01
2.048146732900267553e-01
2.147497134123041718e-01
2.147497134123041718e-01
2.147497134123041718e-01
2.113106610622850490e-01
2.113106610622850490e-01
2.113106610622850490e-01
2.113106610622850490e-01
2.113106610622850490e-01
2.048146732900267553e-01
2.048146732900267553e-01
2.124570118456247658e-01
2.124570118456247658e-01
2.124570118456247658e-01
2.013756209400076325e-01
2.013756209400076325e-01
2.021398547955674529e-01
2.021398547955674529e-01
2.021398547955674529e-01
2.109285441345051526e-01
2.109285441345051526e-01
1.964081008788689242e-01
1.964081008788689242e-01
1.964081008788689242e-01
2.013756209400076325e-01
2.013756209400076325e-01
2.074894917844860576e-01
2.074894917844860576e-01
2.074894917844860576e-01
1.987008024455483302e-01
1.987008024455483302e-01
1.948796331677493388e-01
1.948796331677493388e-01
1.948796331677493388e-01
1.948796331677493388e-01
1.948796331677493388e-01
1.948796331677493388e-01
1.948796331677493388e-01
1.948796331677493388e-01
1.944975162399694424e-01
1.944975162399694424e-01
1.929690485288498292e-01
1.929690485288498292e-01
1.929690485288498292e-01
1.895299961788307341e-01
1.895299961788307341e-01
1.902942300343905269e-01
1.902942300343905269e-01
1.902942300343905269e-01
1.956438670233091315e-01
1.956438670233091315e-01
2.048146732900267553e-01
2.048146732900267553e-01
2.048146732900267553e-01
1.979365685899885374e-01
1.979365685899885374e-01
1.876194115399312246e-01
1.876194115399312246e-01
1.876194115399312246e-01
1.990829193733282265e-01
1.990829193733282265e-01
1.994650363011081506e-01
1.994650363011081506e-01
1.994650363011081506e-01
1.834161253343523090e-01
1.834161253343523090e-01
1.914405808177302160e-01
1.914405808177302160e-01
1.914405808177302160e-01
1.803591899121131104e-01
1.803591899121131104e-01
1.902942300343905269e-01
1.902942300343905269e-01
1.902942300343905269e-01
1.964081008788689242e-01
1.964081008788689242e-01
1.880015284677111209e-01
1.880015284677111209e-01
1.880015284677111209e-01
1.864730607565915077e-01
1.864730607565915077e-01
1.807413068398930067e-01
1.807413068398930067e-01
1.807413068398930067e-01
1.860909438288116113e-01
1.860909438288116113e-01
1.922048146732900364e-01
1.922048146732900364e-01
1.922048146732900364e-01
1.792128391287733935e-01
1.792128391287733935e-01
1.899121131066106305e-01
1.899121131066106305e-01
1.899121131066106305e-01
1.834161253343523090e-01
1.834161253343523090e-01
1.773022544898739117e-01
1.773022544898739117e-01
1.773022544898739117e-01
1.792128391287733935e-01
1.792128391287733935e-01
1.933511654566297255e-01
1.933511654566297255e-01
1.933511654566297255e-01
1.730989682842949962e-01
1.730989682842949962e-01
1.845624761176920259e-01
1.845624761176920259e-01
1.845624761176920259e-01
1.723347344287352034e-01
1.723347344287352034e-01
1.776843714176538080e-01
1.776843714176538080e-01
1.776843714176538080e-01
1.803591899121131104e-01
1.803591899121131104e-01
1.818876576232326958e-01
1.818876576232326958e-01
1.818876576232326958e-01
1.685135651509361843e-01
1.685135651509361843e-01
1.799770729843332140e-01
1.799770729843332140e-01
1.799770729843332140e-01
1.784486052732136008e-01
1.784486052732136008e-01
1.639281620175773724e-01
1.639281620175773724e-01
1.639281620175773724e-01
1.742453190676346853e-01
1.742453190676346853e-01
1.666029805120366747e-01
1.666029805120366747e-01
1.666029805120366747e-01
1.807413068398930067e-01
1.807413068398930067e-01
1.662208635842567783e-01
1.662208635842567783e-01
1.708062667176155902e-01
1.708062667176155902e-01
1.708062667176155902e-01
1.704241497898356938e-01
1.704241497898356938e-01
1.730989682842949962e-01
1.730989682842949962e-01
1.730989682842949962e-01
1.727168513565150998e-01
1.727168513565150998e-01
1.631639281620175796e-01
1.631639281620175796e-01
1.631639281620175796e-01
1.669850974398165711e-01
1.669850974398165711e-01
1.662208635842567783e-01
1.662208635842567783e-01
1.662208635842567783e-01
1.769201375620939876e-01
1.769201375620939876e-01
1.807413068398930067e-01
1.807413068398930067e-01
1.807413068398930067e-01
1.623996943064577869e-01
1.623996943064577869e-01
1.750095529231945057e-01
1.750095529231945057e-01
1.750095529231945057e-01
1.730989682842949962e-01
1.730989682842949962e-01
1.719526175009552793e-01
1.719526175009552793e-01
1.719526175009552793e-01
1.730989682842949962e-01
1.730989682842949962e-01
1.635460450897974760e-01
1.635460450897974760e-01
1.635460450897974760e-01
1.692777990064959770e-01
1.692777990064959770e-01
1.646923958731371929e-01
1.646923958731371929e-01
1.646923958731371929e-01
1.635460450897974760e-01
1.635460450897974760e-01
1.746274359954146094e-01
1.746274359954146094e-01
1.746274359954146094e-01
1.654566297286969856e-01
1.654566297286969856e-01
1.696599159342759011e-01
1.696599159342759011e-01
1.696599159342759011e-01
1.612533435231180701e-01
1.612533435231180701e-01
1.730989682842949962e-01
1.730989682842949962e-01
1.730989682842949962e-01
1.623996943064577869e-01
1.623996943064577869e-01
1.555215896064195691e-01
1.555215896064195691e-01
1.555215896064195691e-01
1.623996943064577869e-01
1.623996943064577869e-01
1.578142911730989750e-01
1.578142911730989750e-01
1.578142911730989750e-01
1.581964081008788714e-01
1.581964081008788714e-01
1.627818112342376833e-01
1.627818112342376833e-01
1.627818112342376833e-01
1.601069927397783810e-01
1.601069927397783810e-01
1.700420328620557975e-01
1.700420328620557975e-01
1.700420328620557975e-01
1.555215896064195691e-01
1.555215896064195691e-01
1.643102789453572687e-01
1.643102789453572687e-01
1.643102789453572687e-01
1.662208635842567783e-01
1.662208635842567783e-01
1.559037065341994654e-01
1.559037065341994654e-01
1.559037065341994654e-01
1.704241497898356938e-01
1.704241497898356938e-01
1.589606419564386641e-01
1.589606419564386641e-01
1.589606419564386641e-01
1.612533435231180701e-01
1.612533435231180701e-01
1.562858234619793618e-01
1.562858234619793618e-01
1.562858234619793618e-01
1.593427588842185605e-01
1.593427588842185605e-01
1.662208635842567783e-01
1.662208635842567783e-01
1.662208635842567783e-01
1.555215896064195691e-01
1.555215896064195691e-01
1.543752388230798522e-01
1.543752388230798522e-01
1.543752388230798522e-01
1.631639281620175796e-01
1.631639281620175796e-01
1.643102789453572687e-01
1.643102789453572687e-01
1.643102789453572687e-01
1.601069927397783810e-01
1.601069927397783810e-01
1.555215896064195691e-01
1.555215896064195691e-01
1.555215896064195691e-01
1.570500573175391545e-01
1.570500573175391545e-01
1.513183034008406536e-01
1.513183034008406536e-01
1.513183034008406536e-01
1.604891096675582773e-01
1.604891096675582773e-01
1.593427588842185605e-01
1.593427588842185605e-01
1.593427588842185605e-01
1.551394726786396727e-01
1.551394726786396727e-01
1.524646541841803704e-01
1.524646541841803704e-01
1.524646541841803704e-01
1.578142911730989750e-01
1.578142911730989750e-01
1.616354604508979664e-01
1.616354604508979664e-01
1.616354604508979664e-01
1.608712265953381737e-01
1.608712265953381737e-01
1.501719526175009645e-01
1.501719526175009645e-01
1.501719526175009645e-01
1.501719526175009645e-01
1.501719526175009645e-01
1.646923958731371929e-01
1.646923958731371929e-01
1.646923958731371929e-01
1.715705005731753829e-01
1.715705005731753829e-01
1.570500573175391545e-01
1.570500573175391545e-01
1.570500573175391545e-01
1.559037065341994654e-01
1.559037065341994654e-01
1.593427588842185605e-01
1.593427588842185605e-01
1.593427588842185605e-01
1.536110049675200595e-01
1.536110049675200595e-01
1.497898356897210681e-01
1.497898356897210681e-01
1.497898356897210681e-01
1.597248758119984846e-01
1.597248758119984846e-01
1.555215896064195691e-01
1.555215896064195691e-01
1.555215896064195691e-01
1.612533435231180701e-01
1.612533435231180701e-01
1.643102789453572687e-01
1.643102789453572687e-01
1.643102789453572687e-01
1.543752388230798522e-01
1.543752388230798522e-01
1.562858234619793618e-01
1.562858234619793618e-01
1.562858234619793618e-01
1.639281620175773724e-01
1.639281620175773724e-01
1.604891096675582773e-01
1.604891096675582773e-01
1.604891096675582773e-01
1.673672143675964952e-01
1.673672143675964952e-01
1.623996943064577869e-01
1.623996943064577869e-01
1.623996943064577869e-01
1.524646541841803704e-01
1.524646541841803704e-01
1.654566297286969856e-01
1.654566297286969856e-01
1.654566297286969856e-01
1.509361864730607572e-01
1.509361864730607572e-01
1.513183034008406536e-01
1.513183034008406536e-01
1.513183034008406536e-01
1.578142911730989750e-01
1.578142911730989750e-01
1.627818112342376833e-01
1.627818112342376833e-01
1.524646541841803704e-01
1.524646541841803704e-01
1.524646541841803704e-01
1.455865494841421526e-01
1.455865494841421526e-01
1.658387466564768820e-01
1.658387466564768820e-01
1.658387466564768820e-01
1.520825372564004463e-01
1.520825372564004463e-01
1.635460450897974760e-01
1.635460450897974760e-01
1.635460450897974760e-01
1.612533435231180701e-01
1.612533435231180701e-01
1.543752388230798522e-01
1.543752388230798522e-01
1.543752388230798522e-01
1.570500573175391545e-01
1.570500573175391545e-01
1.486434849063813513e-01
1.486434849063813513e-01
1.486434849063813513e-01
1.543752388230798522e-01
1.543752388230798522e-01
1.539931218952999559e-01
1.539931218952999559e-01
1.539931218952999559e-01
1.593427588842185605e-01
1.593427588842185605e-01
1.589606419564386641e-01
1.589606419564386641e-01
1.589606419564386641e-01
1.513183034008406536e-01
1.513183034008406536e-01
1.673672143675964952e-01
1.673672143675964952e-01
1.673672143675964952e-01
1.593427588842185605e-01
1.593427588842185605e-01
1.509361864730607572e-01
1.509361864730607572e-01
1.509361864730607572e-01
1.459686664119220489e-01
1.459686664119220489e-01
1.547573557508597764e-01
1.547573557508597764e-01
1.547573557508597764e-01
1.513183034008406536e-01
1.513183034008406536e-01
1.658387466564768820e-01
1.658387466564768820e-01
1.658387466564768820e-01
1.566679403897592582e-01
1.566679403897592582e-01
1.532288880397401631e-01
1.532288880397401631e-01
1.532288880397401631e-01
1.532288880397401631e-01
1.532288880397401631e-01
1.497898356897210681e-01
1.497898356897210681e-01
1.497898356897210681e-01
1.612533435231180701e-01
1.612533435231180701e-01
1.509361864730607572e-01
1.509361864730607572e-01
1.509361864730607572e-01
1.471150171952617380e-01
1.471150171952617380e-01
1.494077187619411440e-01
1.494077187619411440e-01
1.494077187619411440e-01
1.654566297286969856e-01
1.654566297286969856e-01
1.474971341230416622e-01
1.474971341230416622e-01
1.474971341230416622e-01
1.589606419564386641e-01
1.589606419564386641e-01
1.654566297286969856e-01
1.654566297286969856e-01
1.654566297286969856e-01
1.669850974398165711e-01
1.669850974398165711e-01
1.520825372564004463e-01
1.520825372564004463e-01
1.520825372564004463e-01
1.658387466564768820e-01
1.658387466564768820e-01
1.482613679786014549e-01
1.482613679786014549e-01
1.482613679786014549e-01
1.486434849063813513e-01
1.486434849063813513e-01
1.482613679786014549e-01
1.482613679786014549e-01
1.482613679786014549e-01
1.501719526175009645e-01
1.501719526175009645e-01
1.570500573175391545e-01
1.570500573175391545e-01
1.570500573175391545e-01
1.532288880397401631e-01
1.532288880397401631e-01
1.608712265953381737e-01
1.608712265953381737e-01
1.608712265953381737e-01
1.612533435231180701e-01
1.612533435231180701e-01
1.474971341230416622e-01
1.474971341230416622e-01
1.474971341230416622e-01
1.601069927397783810e-01
1.601069927397783810e-01
1.509361864730607572e-01
1.509361864730607572e-01
1.509361864730607572e-01
1.520825372564004463e-01
1.520825372564004463e-01
1.513183034008406536e-01
1.513183034008406536e-01
1.513183034008406536e-01
1.570500573175391545e-01
1.570500573175391545e-01
1.501719526175009645e-01
1.501719526175009645e-01
1.501719526175009645e-01
1.517004203286205499e-01
1.517004203286205499e-01
1.627818112342376833e-01
1.627818112342376833e-01
1.627818112342376833e-01
1.646923958731371929e-01
1.646923958731371929e-01
1.555215896064195691e-01
1.555215896064195691e-01
1.555215896064195691e-01
1.543752388230798522e-01
1.543752388230798522e-01
1.524646541841803704e-01
1.524646541841803704e-01
1.524646541841803704e-01
1.528467711119602668e-01
1.528467711119602668e-01
1.616354604508979664e-01
1.616354604508979664e-01
1.616354604508979664e-01
1.570500573175391545e-01
1.570500573175391545e-01
1.513183034008406536e-01
1.513183034008406536e-01
1.513183034008406536e-01
1.524646541841803704e-01
1.524646541841803704e-01
1.650745128009170892e-01
1.650745128009170892e-01
1.650745128009170892e-01
1.608712265953381737e-01
1.608712265953381737e-01
1.616354604508979664e-01
1.616354604508979664e-01
1.616354604508979664e-01
1.539931218952999559e-01
1.539931218952999559e-01
1.517004203286205499e-01
1.517004203286205499e-01
1.517004203286205499e-01
1.658387466564768820e-01
1.658387466564768820e-01
1.497898356897210681e-01
1.497898356897210681e-01
1.497898356897210681e-01
1.620175773786778628e-01
1.620175773786778628e-01
1.601069927397783810e-01
1.601069927397783810e-01
1.601069927397783810e-01
1.593427588842185605e-01
1.593427588842185605e-01
1.509361864730607572e-01
1.509361864730607572e-01
1.509361864730607572e-01
1.478792510508215585e-01
1.478792510508215585e-01
1.520825372564004463e-01
1.520825372564004463e-01
1.520825372564004463e-01
1.513183034008406536e-01
1.513183034008406536e-01
1.471150171952617380e-01
1.471150171952617380e-01
1.471150171952617380e-01
1.585785250286587678e-01
1.585785250286587678e-01
1.589606419564386641e-01
1.589606419564386641e-01
1.589606419564386641e-01
1.471150171952617380e-01
1.471150171952617380e-01
1.539931218952999559e-01
1.539931218952999559e-01
1.539931218952999559e-01
1.539931218952999559e-01
1.539931218952999559e-01
1.547573557508597764e-01
1.547573557508597764e-01
1.513183034008406536e-01
1.513183034008406536e-01
1.513183034008406536e-01
1.551394726786396727e-01
1.551394726786396727e-01
1.566679403897592582e-01
1.566679403897592582e-01
1.566679403897592582e-01
1.494077187619411440e-01
1.494077187619411440e-01
1.555215896064195691e-01
1.555215896064195691e-01
1.555215896064195691e-01
1.581964081008788714e-01
1.581964081008788714e-01
1.593427588842185605e-01
1.593427588842185605e-01
1.593427588842185605e-01
1.673672143675964952e-01
1.673672143675964952e-01
1.673672143675964952e-01
1.673672143675964952e-01
1.673672143675964952e-01
1.581964081008788714e-01
1.581964081008788714e-01
1.604891096675582773e-01
1.604891096675582773e-01
1.604891096675582773e-01
1.685135651509361843e-01
1.685135651509361843e-01
1.666029805120366747e-01
1.666029805120366747e-01
1.666029805120366747e-01
1.780664883454337044e-01
1.780664883454337044e-01
1.849445930454719222e-01
1.849445930454719222e-01
1.849445930454719222e-01
1.933511654566297255e-01
1.933511654566297255e-01
1.895299961788307341e-01
1.895299961788307341e-01
1.895299961788307341e-01
2.036683225066870384e-01
2.036683225066870384e-01
2.059610240733664444e-01
2.059610240733664444e-01
2.059610240733664444e-01
2.113106610622850490e-01
2.113106610622850490e-01
2.269774551012609942e-01
2.269774551012609942e-01
2.269774551012609942e-01
2.216278181123423896e-01
2.216278181123423896e-01
2.453190676346962140e-01
2.453190676346962140e-01
2.453190676346962140e-01
2.541077569736339137e-01
2.541077569736339137e-01
2.621322124570118484e-01
2.621322124570118484e-01
2.621322124570118484e-01
2.590752770347726219e-01
2.590752770347726219e-01
2.693924340848299348e-01
2.693924340848299348e-01
2.693924340848299348e-01
2.873519296904852860e-01
2.873519296904852860e-01
2.957585021016431170e-01
2.957585021016431170e-01
2.957585021016431170e-01
2.946121513183034279e-01
2.946121513183034279e-01
3.053114252961406372e-01
3.053114252961406372e-01
3.053114252961406372e-01
3.274742071073748484e-01
3.274742071073748484e-01
3.290026748184944339e-01
3.290026748184944339e-01
3.290026748184944339e-01
3.301490256018341785e-01
3.301490256018341785e-01
3.393198318685518022e-01
3.393198318685518022e-01
3.393198318685518022e-01
3.511654566297287006e-01
3.511654566297287006e-01
3.504012227741689078e-01
3.504012227741689078e-01
3.504012227741689078e-01
3.607183798242262207e-01
3.607183798242262207e-01
3.626289644631257025e-01
3.626289644631257025e-01
3.626289644631257025e-01
3.733282384409629118e-01
3.733282384409629118e-01
3.782957585021016200e-01
3.782957585021016200e-01
3.782957585021016200e-01
3.824990447076805355e-01
3.824990447076805355e-01
3.844096293465800729e-01
3.844096293465800729e-01
3.844096293465800729e-01
3.882307986243790365e-01
3.882307986243790365e-01
3.905235001910584702e-01
3.905235001910584702e-01
3.905235001910584702e-01
4.042797095911349059e-01
4.042797095911349059e-01
4.012227741688956795e-01
4.012227741688956795e-01
4.012227741688956795e-01
3.966373710355368676e-01
3.966373710355368676e-01
4.088651127244937178e-01
4.088651127244937178e-01
4.088651127244937178e-01
4.027512418800152649e-01
4.027512418800152649e-01
4.042797095911349059e-01
4.042797095911349059e-01
4.042797095911349059e-01
4.008406572411157831e-01
4.008406572411157831e-01
4.092472296522736142e-01
4.092472296522736142e-01
4.092472296522736142e-01
4.088651127244937178e-01
4.088651127244937178e-01
4.073366450133740768e-01
4.073366450133740768e-01
4.073366450133740768e-01
4.157432174245319079e-01
4.157432174245319079e-01
4.077187619411539732e-01
4.077187619411539732e-01
4.077187619411539732e-01
4.088651127244937178e-01
4.088651127244937178e-01
4.069545280855941805e-01
4.069545280855941805e-01
4.069545280855941805e-01
4.084829957967138214e-01
4.084829957967138214e-01
3.996943064577760940e-01
3.996943064577760940e-01
3.996943064577760940e-01
4.012227741688956795e-01
4.012227741688956795e-01
4.038975926633550095e-01
4.038975926633550095e-01
4.038975926633550095e-01
4.012227741688956795e-01
4.012227741688956795e-01
4.061902942300343877e-01
4.061902942300343877e-01
4.061902942300343877e-01
4.008406572411157831e-01
4.008406572411157831e-01
4.046618265189148023e-01
4.046618265189148023e-01
4.046618265189148023e-01
3.966373710355368676e-01
3.966373710355368676e-01
4.058081773022544914e-01
4.058081773022544914e-01
4.058081773022544914e-01
4.012227741688956795e-01
4.012227741688956795e-01
4.000764233855559904e-01
4.000764233855559904e-01
4.000764233855559904e-01
3.886129155521589329e-01
3.886129155521589329e-01
3.966373710355368676e-01
3.966373710355368676e-01
3.966373710355368676e-01
3.924340848299579521e-01
3.924340848299579521e-01
3.905235001910584702e-01
3.905235001910584702e-01
3.905235001910584702e-01
3.859380970576996583e-01
3.859380970576996583e-01
3.920519679021780557e-01
3.920519679021780557e-01
3.920519679021780557e-01
3.851738632021398656e-01
3.851738632021398656e-01
3.828811616354604319e-01
3.828811616354604319e-01
3.828811616354604319e-01
3.847917462743599692e-01
3.847917462743599692e-01
3.882307986243790365e-01
3.882307986243790365e-01
3.813526939243408465e-01
3.813526939243408465e-01
3.813526939243408465e-01
3.725640045854031190e-01
3.725640045854031190e-01
3.760030569354222418e-01
3.760030569354222418e-01
3.760030569354222418e-01
3.893771494077187811e-01
3.893771494077187811e-01
3.767672907909820346e-01
3.767672907909820346e-01
3.767672907909820346e-01
3.817348108521207428e-01
3.817348108521207428e-01
3.817348108521207428e-01
3.817348108521207428e-01
3.817348108521207428e-01
3.733282384409629118e-01
3.733282384409629118e-01
3.786778754298815164e-01
3.786778754298815164e-01
3.786778754298815164e-01
3.771494077187619309e-01
3.771494077187619309e-01
3.744745892243026564e-01
3.744745892243026564e-01
3.744745892243026564e-01
3.717997707298433263e-01
3.717997707298433263e-01
3.710355368742835336e-01
3.710355368742835336e-01
3.710355368742835336e-01
3.626289644631257025e-01
3.626289644631257025e-01
3.679786014520443072e-01
3.679786014520443072e-01
3.679786014520443072e-01
3.599541459686664280e-01
3.599541459686664280e-01
3.641574321742453435e-01
3.641574321742453435e-01
3.641574321742453435e-01
3.717997707298433263e-01
3.717997707298433263e-01
3.603362628964463243e-01
3.603362628964463243e-01
3.603362628964463243e-01
3.591899121131066352e-01
3.591899121131066352e-01
3.637753152464653916e-01
3.637753152464653916e-01
3.637753152464653916e-01
3.511654566297287006e-01
3.511654566297287006e-01
3.496369889186091151e-01
3.496369889186091151e-01
3.496369889186091151e-01
3.611004967520061171e-01
3.611004967520061171e-01
3.530760412686281824e-01
3.530760412686281824e-01
3.530760412686281824e-01
3.611004967520061171e-01
3.611004967520061171e-01
3.496369889186091151e-01
3.496369889186091151e-01
3.496369889186091151e-01
3.538402751241879751e-01
3.538402751241879751e-01
3.431410011463507659e-01
3.431410011463507659e-01
3.431410011463507659e-01
3.461979365685899923e-01
3.461979365685899923e-01
3.500191058463890115e-01
3.500191058463890115e-01
3.500191058463890115e-01
3.530760412686281824e-01
3.530760412686281824e-01
3.461979365685899923e-01
3.461979365685899923e-01
3.461979365685899923e-01
3.419946503630110768e-01
3.419946503630110768e-01
3.312953763851738676e-01
3.312953763851738676e-01
3.312953763851738676e-01
3.381734810852120576e-01
3.381734810852120576e-01
3.404661826518914913e-01
3.404661826518914913e-01
3.404661826518914913e-01
3.351165456629728867e-01
3.351165456629728867e-01
3.309132594573939712e-01
3.309132594573939712e-01
3.309132594573939712e-01
3.293847917462743857e-01
3.293847917462743857e-01
3.290026748184944339e-01
3.290026748184944339e-01
3.290026748184944339e-01
3.225066870462361401e-01
3.225066870462361401e-01
3.251815055406954702e-01
3.251815055406954702e-01
3.251815055406954702e-01
3.148643484906381573e-01
3.148643484906381573e-01
3.060756591517004299e-01
3.060756591517004299e-01
3.060756591517004299e-01
3.091325945739396008e-01
3.091325945739396008e-01
3.022544898739014108e-01
3.022544898739014108e-01
3.022544898739014108e-01
3.114252961406190345e-01
3.114252961406190345e-01
3.011081390905617217e-01
3.011081390905617217e-01
3.011081390905617217e-01
3.056935422239205336e-01
3.056935422239205336e-01
2.965227359572029098e-01
2.965227359572029098e-01
2.965227359572029098e-01
2.991975544516621843e-01
2.991975544516621843e-01
2.873519296904852860e-01
2.873519296904852860e-01
2.873519296904852860e-01
2.892625143293847678e-01
2.892625143293847678e-01
3.007260221627818253e-01
3.007260221627818253e-01
3.007260221627818253e-01
2.808559419182269923e-01
2.808559419182269923e-01
2.739778372181887467e-01
2.739778372181887467e-01
2.739778372181887467e-01
2.728314864348490576e-01
2.728314864348490576e-01
2.850592281238059078e-01
2.850592281238059078e-01
2.850592281238059078e-01
2.678639663737103493e-01
2.678639663737103493e-01
2.735957202904088503e-01
2.735957202904088503e-01
2.735957202904088503e-01
2.732136033626289540e-01
2.732136033626289540e-01
2.670997325181505566e-01
2.670997325181505566e-01
2.670997325181505566e-01
2.640427970959113302e-01
2.640427970959113302e-01
2.693924340848299348e-01
2.693924340848299348e-01
2.693924340848299348e-01
2.621322124570118484e-01
2.621322124570118484e-01
2.544898739014138100e-01
2.544898739014138100e-01
2.544898739014138100e-01
2.564004585403133474e-01
2.564004585403133474e-01
2.521971723347344319e-01
2.521971723347344319e-01
2.521971723347344319e-01
2.518150554069545355e-01
2.518150554069545355e-01
2.479938861291555163e-01
2.479938861291555163e-01
2.479938861291555163e-01
2.552541077569736583e-01
2.552541077569736583e-01
2.487581199847153091e-01
2.487581199847153091e-01
2.487581199847153091e-01
2.552541077569736583e-01
2.552541077569736583e-01
2.476117692013756200e-01
2.476117692013756200e-01
2.476117692013756200e-01
2.529614061902942246e-01
2.529614061902942246e-01
2.426442491402369117e-01
2.426442491402369117e-01
2.426442491402369117e-01
2.357661444401986939e-01
2.357661444401986939e-01
2.495223538402751295e-01
2.495223538402751295e-01
2.495223538402751295e-01
2.380588460068780998e-01
2.380588460068780998e-01
2.407336645013374021e-01
2.407336645013374021e-01
2.414978983568972226e-01
2.414978983568972226e-01
2.414978983568972226e-01
2.533435231180741209e-01
2.533435231180741209e-01
2.453190676346962140e-01
2.453190676346962140e-01
2.453190676346962140e-01
2.468475353458158272e-01
2.468475353458158272e-01
2.388230798624378926e-01
2.388230798624378926e-01
2.388230798624378926e-01
2.369124952235384107e-01
2.369124952235384107e-01
2.449369507069163177e-01
2.449369507069163177e-01
2.449369507069163177e-01
2.411157814291172985e-01
2.411157814291172985e-01
2.437905999235766008e-01
2.437905999235766008e-01
2.437905999235766008e-01
2.418800152846771190e-01
2.418800152846771190e-01
2.414978983568972226e-01
2.414978983568972226e-01
2.414978983568972226e-01
2.384409629346579962e-01
2.384409629346579962e-01
2.372946121513183071e-01
2.372946121513183071e-01
2.372946121513183071e-01
2.357661444401986939e-01
2.357661444401986939e-01
2.483760030569354127e-01
2.483760030569354127e-01
2.483760030569354127e-01
2.499044707680550259e-01
2.499044707680550259e-01
2.460833014902560067e-01
2.460833014902560067e-01
2.460833014902560067e-01
2.380588460068780998e-01
2.380588460068780998e-01
2.380588460068780998e-01
2.380588460068780998e-01
2.380588460068780998e-01
2.353840275124187975e-01
2.353840275124187975e-01
2.380588460068780998e-01
2.380588460068780998e-01
2.380588460068780998e-01
2.357661444401986939e-01
2.357661444401986939e-01
2.330913259457393916e-01
2.330913259457393916e-01
2.330913259457393916e-01
2.304165074512800893e-01
2.304165074512800893e-01
2.334734428735192879e-01
2.334734428735192879e-01
2.334734428735192879e-01
2.300343905235001929e-01
2.300343905235001929e-01
2.204814673290026728e-01
2.204814673290026728e-01
2.204814673290026728e-01
2.346197936568590048e-01
2.346197936568590048e-01
2.292701566679404002e-01
2.292701566679404002e-01
2.292701566679404002e-01
2.197172334734428800e-01
2.197172334734428800e-01
2.353840275124187975e-01
2.353840275124187975e-01
2.353840275124187975e-01
2.246847535345815883e-01
2.246847535345815883e-01
2.246847535345815883e-01
2.246847535345815883e-01
2.246847535345815883e-01
2.227741688956820787e-01
2.227741688956820787e-01
2.231562858234619751e-01
2.231562858234619751e-01
2.231562858234619751e-01
2.258311043179212774e-01
2.258311043179212774e-01
2.231562858234619751e-01
2.231562858234619751e-01
2.231562858234619751e-01
2.170424149789835777e-01
2.170424149789835777e-01
2.147497134123041718e-01
2.147497134123041718e-01
2.147497134123041718e-01
2.174245319067634741e-01
2.174245319067634741e-01
2.243026366068016919e-01
2.243026366068016919e-01
2.243026366068016919e-01
2.185708826901031632e-01
2.185708826901031632e-01
2.109285441345051526e-01
2.109285441345051526e-01
2.109285441345051526e-01
2.097821933511654635e-01
2.097821933511654635e-01
2.109285441345051526e-01
2.109285441345051526e-01
2.109285441345051526e-01
2.094000764233855671e-01
2.094000764233855671e-01
2.051967902178066516e-01
2.051967902178066516e-01
2.051967902178066516e-01
2.116927779900649731e-01
2.116927779900649731e-01
2.136033626289644549e-01
2.136033626289644549e-01
2.136033626289644549e-01
2.109285441345051526e-01
2.109285441345051526e-01
2.105464272067252562e-01
2.105464272067252562e-01
2.105464272067252562e-01
2.139854795567443513e-01
2.139854795567443513e-01
2.105464272067252562e-01
2.105464272067252562e-01
2.105464272067252562e-01
2.051967902178066516e-01
2.051967902178066516e-01
2.036683225066870384e-01
2.036683225066870384e-01
2.036683225066870384e-01
2.006113870844478397e-01
2.006113870844478397e-01
2.059610240733664444e-01
2.059610240733664444e-01
2.059610240733664444e-01
1.994650363011081506e-01
1.994650363011081506e-01
1.914405808177302160e-01
1.914405808177302160e-01
1.914405808177302160e-01
1.925869316010699328e-01
1.925869316010699328e-01
1.918226977455101123e-01
1.918226977455101123e-01
1.918226977455101123e-01
1.975544516622086411e-01
1.975544516622086411e-01
1.891478792510508100e-01
1.891478792510508100e-01
1.891478792510508100e-01
1.956438670233091315e-01
1.956438670233091315e-01
1.895299961788307341e-01
1.895299961788307341e-01
1.895299961788307341e-01
1.914405808177302160e-01
1.914405808177302160e-01
1.914405808177302160e-01
1.914405808177302160e-01
1.914405808177302160e-01
1.841803591899121018e-01
1.841803591899121018e-01
1.952617500955292351e-01
1.952617500955292351e-01
1.952617500955292351e-01
1.826518914787925163e-01
1.826518914787925163e-01
1.864730607565915077e-01
1.864730607565915077e-01
1.864730607565915077e-01
1.822697745510126199e-01
1.822697745510126199e-01
1.860909438288116113e-01
1.860909438288116113e-01
1.860909438288116113e-01
1.830340084065724127e-01
1.830340084065724127e-01
1.914405808177302160e-01
1.914405808177302160e-01
1.914405808177302160e-01
1.803591899121131104e-01
1.803591899121131104e-01
1.876194115399312246e-01
1.876194115399312246e-01
1.876194115399312246e-01
1.914405808177302160e-01
1.914405808177302160e-01
1.922048146732900364e-01
1.922048146732900364e-01
1.922048146732900364e-01
1.826518914787925163e-01
1.826518914787925163e-01
1.769201375620939876e-01
1.769201375620939876e-01
1.769201375620939876e-01
1.738632021398547889e-01
1.738632021398547889e-01
1.761559037065341948e-01
1.761559037065341948e-01
1.895299961788307341e-01
1.895299961788307341e-01
1.895299961788307341e-01
1.730989682842949962e-01
1.730989682842949962e-01
1.864730607565915077e-01
1.864730607565915077e-01
1.864730607565915077e-01
1.815055406954527994e-01
1.815055406954527994e-01
1.849445930454719222e-01
1.849445930454719222e-01
1.849445930454719222e-01
1.860909438288116113e-01
1.860909438288116113e-01
1.677493312953763915e-01
1.677493312953763915e-01
1.677493312953763915e-01
1.719526175009552793e-01
1.719526175009552793e-01
1.727168513565150998e-01
1.727168513565150998e-01
1.727168513565150998e-01
1.822697745510126199e-01
1.822697745510126199e-01
1.776843714176538080e-01
1.776843714176538080e-01
1.776843714176538080e-01
1.795949560565533176e-01
1.795949560565533176e-01
1.688956820787160806e-01
1.688956820787160806e-01
1.688956820787160806e-01
1.650745128009170892e-01
1.650745128009170892e-01
1.696599159342759011e-01
1.696599159342759011e-01
1.696599159342759011e-01
1.685135651509361843e-01
1.685135651509361843e-01
1.753916698509744021e-01
1.753916698509744021e-01
1.753916698509744021e-01
1.654566297286969856e-01
1.654566297286969856e-01
1.719526175009552793e-01
1.719526175009552793e-01
1.719526175009552793e-01
1.753916698509744021e-01
1.753916698509744021e-01
1.681314482231562879e-01
1.681314482231562879e-01
1.681314482231562879e-01
1.700420328620557975e-01
1.700420328620557975e-01
1.773022544898739117e-01
1.773022544898739117e-01
1.773022544898739117e-01
1.688956820787160806e-01
1.688956820787160806e-01
1.620175773786778628e-01
1.620175773786778628e-01
1.620175773786778628e-01
1.669850974398165711e-01
1.669850974398165711e-01
1.730989682842949962e-01
1.730989682842949962e-01
1.730989682842949962e-01
1.753916698509744021e-01
1.753916698509744021e-01
1.750095529231945057e-01
1.750095529231945057e-01
1.750095529231945057e-01
1.639281620175773724e-01
1.639281620175773724e-01
1.570500573175391545e-01
1.570500573175391545e-01
1.570500573175391545e-01
1.681314482231562879e-01
1.681314482231562879e-01
1.639281620175773724e-01
1.639281620175773724e-01
1.639281620175773724e-01
1.604891096675582773e-01
1.604891096675582773e-01
1.555215896064195691e-01
1.555215896064195691e-01
1.555215896064195691e-01
1.715705005731753829e-01
1.715705005731753829e-01
1.604891096675582773e-01
1.604891096675582773e-01
1.604891096675582773e-01
1.589606419564386641e-01
1.589606419564386641e-01
1.562858234619793618e-01
1.562858234619793618e-01
1.562858234619793618e-01
1.547573557508597764e-01
1.547573557508597764e-01
1.673672143675964952e-01
1.673672143675964952e-01
1.673672143675964952e-01
1.643102789453572687e-01
1.643102789453572687e-01
1.704241497898356938e-01
1.704241497898356938e-01
1.704241497898356938e-01
1.574321742453190787e-01
1.574321742453190787e-01
1.497898356897210681e-01
1.497898356897210681e-01
1.497898356897210681e-01
1.623996943064577869e-01
1.623996943064577869e-01
1.566679403897592582e-01
1.566679403897592582e-01
1.566679403897592582e-01
1.490256018341612476e-01
1.490256018341612476e-01
1.520825372564004463e-01
1.520825372564004463e-01
1.520825372564004463e-01
1.551394726786396727e-01
1.551394726786396727e-01
1.623996943064577869e-01
1.623996943064577869e-01
1.623996943064577869e-01
1.555215896064195691e-01
1.555215896064195691e-01
1.509361864730607572e-01
1.509361864730607572e-01
1.509361864730607572e-01
1.559037065341994654e-01
1.559037065341994654e-01
1.551394726786396727e-01
1.551394726786396727e-01
1.551394726786396727e-01
1.604891096675582773e-01
1.604891096675582773e-01
1.578142911730989750e-01
1.578142911730989750e-01
1.578142911730989750e-01
1.478792510508215585e-01
1.478792510508215585e-01
1.608712265953381737e-01
1.608712265953381737e-01
1.608712265953381737e-01
1.578142911730989750e-01
1.578142911730989750e-01
1.623996943064577869e-01
1.623996943064577869e-01
1.623996943064577869e-01
1.604891096675582773e-01
1.604891096675582773e-01
1.578142911730989750e-01
1.578142911730989750e-01
1.578142911730989750e-01
1.509361864730607572e-01
1.509361864730607572e-01
1.543752388230798522e-01
1.543752388230798522e-01
1.543752388230798522e-01
1.536110049675200595e-01
1.536110049675200595e-01
1.509361864730607572e-01
1.509361864730607572e-01
1.509361864730607572e-01
1.509361864730607572e-01
1.509361864730607572e-01
1.490256018341612476e-01
1.490256018341612476e-01
1.490256018341612476e-01
1.494077187619411440e-01
1.494077187619411440e-01
1.631639281620175796e-01
1.631639281620175796e-01
1.631639281620175796e-01
1.555215896064195691e-01
1.555215896064195691e-01
1.455865494841421526e-01
1.455865494841421526e-01
1.455865494841421526e-01
1.524646541841803704e-01
1.524646541841803704e-01
1.536110049675200595e-01
1.536110049675200595e-01
1.536110049675200595e-01
1.513183034008406536e-01
1.513183034008406536e-01
1.566679403897592582e-01
1.566679403897592582e-01
1.566679403897592582e-01
1.505540695452808608e-01
1.505540695452808608e-01
1.490256018341612476e-01
1.490256018341612476e-01
1.490256018341612476e-01
1.547573557508597764e-01
1.547573557508597764e-01
1.589606419564386641e-01
1.589606419564386641e-01
1.612533435231180701e-01
1.612533435231180701e-01
1.612533435231180701e-01
1.520825372564004463e-01
1.520825372564004463e-01
1.517004203286205499e-01
1.517004203286205499e-01
1.517004203286205499e-01
1.455865494841421526e-01
1.455865494841421526e-01
1.536110049675200595e-01
1.536110049675200595e-01
1.536110049675200595e-01
1.501719526175009645e-01
1.501719526175009645e-01
1.486434849063813513e-01
1.486434849063813513e-01
1.486434849063813513e-01
1.578142911730989750e-01
1.578142911730989750e-01
1.539931218952999559e-01
1.539931218952999559e-01
1.539931218952999559e-01
1.383263278563240384e-01
1.383263278563240384e-01
1.471150171952617380e-01
1.471150171952617380e-01
1.471150171952617380e-01
1.555215896064195691e-01
1.555215896064195691e-01
1.448223156285823598e-01
1.448223156285823598e-01
1.448223156285823598e-01
1.455865494841421526e-01
1.455865494841421526e-01
1.536110049675200595e-01
1.536110049675200595e-01
1.536110049675200595e-01
1.547573557508597764e-01
1.547573557508597764e-01
1.459686664119220489e-01
1.459686664119220489e-01
1.459686664119220489e-01
1.410011463507833407e-01
1.410011463507833407e-01
1.429117309896828503e-01
1.429117309896828503e-01
1.429117309896828503e-01
1.593427588842185605e-01
1.593427588842185605e-01
1.444401987008024357e-01
1.444401987008024357e-01
1.444401987008024357e-01
1.593427588842185605e-01
1.593427588842185605e-01
1.601069927397783810e-01
1.601069927397783810e-01
1.601069927397783810e-01
1.524646541841803704e-01
1.524646541841803704e-01
1.559037065341994654e-01
1.559037065341994654e-01
1.559037065341994654e-01
1.559037065341994654e-01
1.559037065341994654e-01
1.478792510508215585e-01
1.478792510508215585e-01
1.478792510508215585e-01
1.566679403897592582e-01
1.566679403897592582e-01
1.555215896064195691e-01
1.555215896064195691e-01
1.555215896064195691e-01
1.440580817730225394e-01
1.440580817730225394e-01
1.471150171952617380e-01
1.471150171952617380e-01
1.471150171952617380e-01
1.471150171952617380e-01
1.471150171952617380e-01
1.524646541841803704e-01
1.524646541841803704e-01
1.524646541841803704e-01
1.474971341230416622e-01
1.474971341230416622e-01
1.551394726786396727e-01
1.551394726786396727e-01
1.551394726786396727e-01
1.566679403897592582e-01
1.566679403897592582e-01
1.501719526175009645e-01
1.501719526175009645e-01
1.501719526175009645e-01
1.562858234619793618e-01
1.562858234619793618e-01
1.555215896064195691e-01
1.555215896064195691e-01
1.555215896064195691e-01
1.436759648452426430e-01
1.436759648452426430e-01
1.551394726786396727e-01
1.551394726786396727e-01
1.551394726786396727e-01
1.501719526175009645e-01
1.501719526175009645e-01
1.581964081008788714e-01
1.581964081008788714e-01
1.581964081008788714e-01
1.536110049675200595e-01
1.536110049675200595e-01
1.631639281620175796e-01
1.631639281620175796e-01
1.631639281620175796e-01
1.574321742453190787e-01
1.574321742453190787e-01
1.578142911730989750e-01
1.578142911730989750e-01
1.578142911730989750e-01
1.471150171952617380e-01
1.471150171952617380e-01
1.555215896064195691e-01
1.555215896064195691e-01
1.555215896064195691e-01
1.440580817730225394e-01
1.440580817730225394e-01
1.517004203286205499e-01
1.517004203286205499e-01
1.517004203286205499e-01
1.520825372564004463e-01
1.520825372564004463e-01
1.581964081008788714e-01
1.581964081008788714e-01
1.581964081008788714e-01
1.578142911730989750e-01
1.578142911730989750e-01
1.597248758119984846e-01
1.597248758119984846e-01
1.597248758119984846e-01
1.570500573175391545e-01
1.570500573175391545e-01
1.604891096675582773e-01
1.604891096675582773e-01
1.604891096675582773e-01
1.467329002674818417e-01
1.467329002674818417e-01
1.612533435231180701e-01
1.612533435231180701e-01
1.612533435231180701e-01
1.505540695452808608e-01
1.505540695452808608e-01
1.585785250286587678e-01
1.585785250286587678e-01
1.585785250286587678e-01
