3.859380970576996583e-01
3.859380970576996583e-01
3.859380970576996583e-01
3.637753152464653916e-01
3.637753152464653916e-01
3.546045089797478234e-01
3.546045089797478234e-01
3.546045089797478234e-01
3.675964845242644108e-01
3.675964845242644108e-01
3.767672907909820346e-01
3.767672907909820346e-01
3.767672907909820346e-01
3.779136415743217237e-01
3.779136415743217237e-01
3.702713030187237409e-01
3.702713030187237409e-01
3.702713030187237409e-01
3.683607183798242035e-01
3.683607183798242035e-01
3.618647306075659098e-01
3.618647306075659098e-01
3.618647306075659098e-01
3.408482995796713877e-01
3.408482995796713877e-01
3.504012227741689078e-01
3.504012227741689078e-01
3.500191058463890115e-01
3.500191058463890115e-01
3.500191058463890115e-01
3.419946503630110768e-01
3.419946503630110768e-01
3.312953763851738676e-01
3.312953763851738676e-01
3.312953763851738676e-01
3.419946503630110768e-01
3.419946503630110768e-01
3.328238440962934530e-01
3.328238440962934530e-01
3.328238440962934530e-01
3.370271303018723685e-01
3.370271303018723685e-01
3.316774933129537639e-01
3.316774933129537639e-01
3.316774933129537639e-01
3.156285823461979501e-01
3.156285823461979501e-01
3.163928162017577428e-01
3.163928162017577428e-01
3.163928162017577428e-01
2.911730989682843052e-01
2.911730989682843052e-01
3.064577760794803263e-01
3.064577760794803263e-01
3.064577760794803263e-01
2.995796713794421362e-01
2.995796713794421362e-01
3.144822315628582610e-01
3.144822315628582610e-01
3.144822315628582610e-01
2.980512036683224952e-01
2.980512036683224952e-01
3.072220099350401190e-01
3.072220099350401190e-01
3.072220099350401190e-01
2.877340466182651824e-01
2.877340466182651824e-01
2.743599541459686431e-01
2.743599541459686431e-01
2.743599541459686431e-01
2.988154375238822880e-01
2.988154375238822880e-01
2.927015666794038906e-01
2.927015666794038906e-01
2.927015666794038906e-01
2.598395108903324147e-01
2.598395108903324147e-01
2.674818494459304530e-01
2.674818494459304530e-01
2.674818494459304530e-01
2.716851356515093685e-01
2.716851356515093685e-01
2.739778372181887467e-01
2.739778372181887467e-01
2.739778372181887467e-01
2.525792892625143282e-01
2.525792892625143282e-01
2.735957202904088503e-01
2.735957202904088503e-01
2.735957202904088503e-01
2.789453572793274549e-01
2.789453572793274549e-01
2.445548337791364213e-01
2.445548337791364213e-01
2.445548337791364213e-01
2.395873137179977130e-01
2.395873137179977130e-01
2.571646923958731401e-01
2.571646923958731401e-01
2.571646923958731401e-01
2.506687046236148464e-01
2.506687046236148464e-01
2.472296522735957236e-01
2.472296522735957236e-01
2.472296522735957236e-01
2.441727168513565249e-01
2.441727168513565249e-01
2.327092090179594952e-01
2.327092090179594952e-01
2.327092090179594952e-01
2.365303782957585144e-01
2.365303782957585144e-01
2.445548337791364213e-01
2.445548337791364213e-01
2.445548337791364213e-01
2.460833014902560067e-01
2.460833014902560067e-01
2.552541077569736583e-01
2.552541077569736583e-01
2.552541077569736583e-01
2.288880397401604760e-01
2.288880397401604760e-01
2.491402369124952332e-01
2.491402369124952332e-01
2.491402369124952332e-01
2.200993504012227764e-01
2.200993504012227764e-01
2.372946121513183071e-01
2.372946121513183071e-01
2.372946121513183071e-01
2.174245319067634741e-01
2.174245319067634741e-01
2.460833014902560067e-01
2.460833014902560067e-01
2.460833014902560067e-01
2.418800152846771190e-01
2.418800152846771190e-01
2.197172334734428800e-01
2.197172334734428800e-01
2.197172334734428800e-01
2.403515475735575058e-01
2.403515475735575058e-01
2.170424149789835777e-01
2.170424149789835777e-01
2.170424149789835777e-01
2.040504394344669348e-01
2.040504394344669348e-01
2.277416889568207869e-01
2.277416889568207869e-01
2.277416889568207869e-01
2.235384027512418714e-01
2.235384027512418714e-01
2.338555598012991843e-01
2.338555598012991843e-01
2.338555598012991843e-01
2.162781811234237572e-01
2.162781811234237572e-01
2.258311043179212774e-01
2.258311043179212774e-01
2.258311043179212774e-01
1.987008024455483302e-01
1.987008024455483302e-01
2.216278181123423896e-01
2.216278181123423896e-01
2.216278181123423896e-01
2.239205196790217678e-01
2.239205196790217678e-01
1.899121131066106305e-01
1.899121131066106305e-01
1.899121131066106305e-01
1.891478792510508100e-01
1.891478792510508100e-01
2.158960641956438609e-01
2.158960641956438609e-01
2.158960641956438609e-01
2.143675964845242754e-01
2.143675964845242754e-01
1.822697745510126199e-01
1.822697745510126199e-01
1.822697745510126199e-01
2.090179594956056430e-01
2.090179594956056430e-01
2.124570118456247658e-01
2.124570118456247658e-01
2.124570118456247658e-01
1.948796331677493388e-01
1.948796331677493388e-01
1.876194115399312246e-01
1.876194115399312246e-01
1.876194115399312246e-01
1.765380206343140912e-01
1.765380206343140912e-01
1.937332823844096219e-01
1.937332823844096219e-01
1.937332823844096219e-01
1.952617500955292351e-01
1.952617500955292351e-01
1.711883836453954866e-01
1.711883836453954866e-01
1.711883836453954866e-01
2.048146732900267553e-01
2.048146732900267553e-01
1.708062667176155902e-01
1.708062667176155902e-01
1.708062667176155902e-01
1.685135651509361843e-01
1.685135651509361843e-01
1.979365685899885374e-01
1.979365685899885374e-01
1.979365685899885374e-01
1.929690485288498292e-01
1.929690485288498292e-01
1.776843714176538080e-01
1.776843714176538080e-01
1.776843714176538080e-01
1.643102789453572687e-01
1.643102789453572687e-01
1.685135651509361843e-01
1.685135651509361843e-01
1.685135651509361843e-01
1.792128391287733935e-01
1.792128391287733935e-01
1.730989682842949962e-01
1.730989682842949962e-01
1.730989682842949962e-01
1.780664883454337044e-01
1.780664883454337044e-01
1.673672143675964952e-01
1.673672143675964952e-01
1.807413068398930067e-01
1.807413068398930067e-01
1.807413068398930067e-01
1.738632021398547889e-01
1.738632021398547889e-01
1.857088269010317150e-01
1.857088269010317150e-01
1.857088269010317150e-01
1.696599159342759011e-01
1.696599159342759011e-01
1.742453190676346853e-01
1.742453190676346853e-01
1.742453190676346853e-01
1.708062667176155902e-01
1.708062667176155902e-01
1.601069927397783810e-01
1.601069927397783810e-01
1.601069927397783810e-01
1.608712265953381737e-01
1.608712265953381737e-01
1.463507833397019453e-01
1.463507833397019453e-01
1.463507833397019453e-01
1.627818112342376833e-01
1.627818112342376833e-01
1.715705005731753829e-01
1.715705005731753829e-01
1.715705005731753829e-01
1.719526175009552793e-01
1.719526175009552793e-01
1.578142911730989750e-01
1.578142911730989750e-01
1.578142911730989750e-01
1.719526175009552793e-01
1.719526175009552793e-01
1.490256018341612476e-01
1.490256018341612476e-01
1.490256018341612476e-01
1.413832632785632371e-01
1.413832632785632371e-01
1.429117309896828503e-01
1.429117309896828503e-01
1.429117309896828503e-01
1.639281620175773724e-01
1.639281620175773724e-01
1.639281620175773724e-01
1.639281620175773724e-01
1.639281620175773724e-01
1.639281620175773724e-01
1.639281620175773724e-01
1.708062667176155902e-01
1.708062667176155902e-01
1.708062667176155902e-01
1.375620940007642456e-01
1.375620940007642456e-01
1.589606419564386641e-01
1.589606419564386641e-01
1.589606419564386641e-01
1.440580817730225394e-01
1.440580817730225394e-01
1.348872755063049156e-01
1.348872755063049156e-01
1.348872755063049156e-01
1.440580817730225394e-01
1.440580817730225394e-01
1.623996943064577869e-01
1.623996943064577869e-01
1.623996943064577869e-01
1.348872755063049156e-01
1.348872755063049156e-01
1.295376385173863110e-01
1.295376385173863110e-01
1.295376385173863110e-01
1.394726786396637275e-01
1.394726786396637275e-01
1.444401987008024357e-01
1.444401987008024357e-01
1.444401987008024357e-01
1.623996943064577869e-01
1.623996943064577869e-01
1.444401987008024357e-01
1.444401987008024357e-01
1.444401987008024357e-01
1.524646541841803704e-01
1.524646541841803704e-01
1.260985861673672159e-01
1.260985861673672159e-01
1.260985861673672159e-01
1.520825372564004463e-01
1.520825372564004463e-01
1.352693924340848397e-01
1.352693924340848397e-01
1.352693924340848397e-01
1.322124570118456133e-01
1.322124570118456133e-01
1.406190294230034443e-01
1.406190294230034443e-01
1.406190294230034443e-01
1.318303400840657169e-01
1.318303400840657169e-01
1.303018723729461315e-01
1.303018723729461315e-01
1.303018723729461315e-01
1.188383645395491017e-01
1.188383645395491017e-01
1.215131830340084040e-01
1.215131830340084040e-01
1.215131830340084040e-01
1.429117309896828503e-01
1.429117309896828503e-01
1.478792510508215585e-01
1.478792510508215585e-01
1.478792510508215585e-01
1.245701184562476166e-01
1.245701184562476166e-01
1.520825372564004463e-01
1.520825372564004463e-01
1.520825372564004463e-01
1.230416507451280034e-01
1.230416507451280034e-01
1.505540695452808608e-01
1.505540695452808608e-01
1.505540695452808608e-01
1.222774168895682106e-01
1.222774168895682106e-01
1.257164692395873196e-01
1.257164692395873196e-01
1.257164692395873196e-01
1.429117309896828503e-01
1.429117309896828503e-01
1.180741306839892951e-01
1.180741306839892951e-01
1.180741306839892951e-01
1.490256018341612476e-01
1.490256018341612476e-01
1.295376385173863110e-01
1.295376385173863110e-01
1.295376385173863110e-01
1.325945739396255374e-01
1.325945739396255374e-01
1.184562476117692054e-01
1.184562476117692054e-01
1.184562476117692054e-01
1.215131830340084040e-01
1.215131830340084040e-01
1.287734046618265182e-01
1.287734046618265182e-01
1.287734046618265182e-01
1.482613679786014549e-01
1.482613679786014549e-01
1.413832632785632371e-01
1.413832632785632371e-01
1.413832632785632371e-01
1.299197554451662073e-01
1.299197554451662073e-01
1.226595338173481070e-01
1.226595338173481070e-01
1.226595338173481070e-01
1.467329002674818417e-01
1.467329002674818417e-01
1.303018723729461315e-01
1.303018723729461315e-01
1.303018723729461315e-01
1.436759648452426430e-01
1.436759648452426430e-01
1.249522353840275130e-01
1.249522353840275130e-01
1.249522353840275130e-01
1.364157432174245288e-01
1.364157432174245288e-01
1.421474971341230298e-01
1.421474971341230298e-01
1.421474971341230298e-01
1.115781429117309875e-01
1.115781429117309875e-01
1.360336262896446324e-01
1.360336262896446324e-01
1.360336262896446324e-01
1.394726786396637275e-01
1.394726786396637275e-01
1.287734046618265182e-01
1.287734046618265182e-01
1.287734046618265182e-01
1.364157432174245288e-01
1.364157432174245288e-01
1.222774168895682106e-01
1.222774168895682106e-01
1.222774168895682106e-01
1.115781429117309875e-01
1.115781429117309875e-01
1.192204814673289981e-01
1.192204814673289981e-01
1.192204814673289981e-01
1.111960259839510912e-01
1.111960259839510912e-01
1.310661062285059242e-01
1.310661062285059242e-01
1.310661062285059242e-01
1.077569736339319822e-01
1.077569736339319822e-01
1.050821551394726799e-01
1.050821551394726799e-01
1.050821551394726799e-01
1.371799770729843215e-01
1.371799770729843215e-01
1.150171952617500964e-01
1.150171952617500964e-01
1.047000382116927836e-01
1.047000382116927836e-01
1.047000382116927836e-01
1.176920137562093988e-01
1.176920137562093988e-01
1.069927397783721756e-01
1.069927397783721756e-01
1.069927397783721756e-01
1.295376385173863110e-01
1.295376385173863110e-01
1.260985861673672159e-01
1.260985861673672159e-01
1.260985861673672159e-01
1.169277799006495921e-01
1.169277799006495921e-01
1.230416507451280034e-01
1.230416507451280034e-01
1.230416507451280034e-01
1.138708444784103935e-01
1.138708444784103935e-01
1.138708444784103935e-01
1.138708444784103935e-01
1.138708444784103935e-01
1.241880015284677063e-01
1.241880015284677063e-01
1.180741306839892951e-01
1.180741306839892951e-01
1.180741306839892951e-01
1.039358043561329770e-01
1.039358043561329770e-01
1.184562476117692054e-01
1.184562476117692054e-01
1.184562476117692054e-01
1.024073366450133776e-01
1.024073366450133776e-01
1.161635460450897994e-01
1.161635460450897994e-01
1.161635460450897994e-01
1.207489491784486113e-01
1.207489491784486113e-01
1.104317921283912846e-01
1.104317921283912846e-01
1.104317921283912846e-01
1.058463889950324865e-01
1.058463889950324865e-01
9.705769965609475913e-02
9.705769965609475913e-02
9.705769965609475913e-02
1.280091708062667255e-01
1.280091708062667255e-01
1.192204814673289981e-01
1.192204814673289981e-01
1.192204814673289981e-01
9.514711501719526343e-02
9.514711501719526343e-02
9.820405043943446211e-02
9.820405043943446211e-02
9.820405043943446211e-02
1.226595338173481070e-01
1.226595338173481070e-01
1.268628200229270087e-01
1.268628200229270087e-01
1.268628200229270087e-01
1.089033244172716852e-01
1.089033244172716852e-01
1.176920137562093988e-01
1.176920137562093988e-01
1.176920137562093988e-01
1.268628200229270087e-01
1.268628200229270087e-01
9.170806266717615451e-02
9.170806266717615451e-02
9.170806266717615451e-02
9.667558272831486277e-02
9.667558272831486277e-02
1.241880015284677063e-01
1.241880015284677063e-01
1.241880015284677063e-01
9.820405043943446211e-02
9.820405043943446211e-02
1.226595338173481070e-01
1.226595338173481070e-01
1.226595338173481070e-01
1.073748567061520859e-01
1.073748567061520859e-01
9.361864730607566409e-02
9.361864730607566409e-02
9.361864730607566409e-02
9.705769965609475913e-02
9.705769965609475913e-02
1.012609858616736747e-01
1.012609858616736747e-01
1.012609858616736747e-01
9.591134887275505616e-02
9.591134887275505616e-02
9.361864730607566409e-02
9.361864730607566409e-02
9.361864730607566409e-02
1.230416507451280034e-01
1.230416507451280034e-01
1.027894535727932740e-01
1.027894535727932740e-01
1.027894535727932740e-01
1.035536874283530806e-01
1.035536874283530806e-01
1.226595338173481070e-01
1.226595338173481070e-01
1.226595338173481070e-01
1.421474971341230298e-01
1.421474971341230298e-01
1.429117309896828503e-01
1.429117309896828503e-01
1.429117309896828503e-01
1.196025983951089083e-01
1.196025983951089083e-01
1.230416507451280034e-01
1.230416507451280034e-01
1.230416507451280034e-01
1.283912877340466219e-01
1.283912877340466219e-01
1.463507833397019453e-01
1.463507833397019453e-01
1.463507833397019453e-01
1.513183034008406536e-01
1.513183034008406536e-01
1.734810852120748925e-01
1.734810852120748925e-01
1.734810852120748925e-01
1.532288880397401631e-01
1.532288880397401631e-01
1.757737867787542985e-01
1.757737867787542985e-01
1.757737867787542985e-01
1.666029805120366747e-01
1.666029805120366747e-01
1.761559037065341948e-01
1.761559037065341948e-01
1.761559037065341948e-01
2.109285441345051526e-01
2.109285441345051526e-01
2.090179594956056430e-01
2.090179594956056430e-01
2.090179594956056430e-01
2.158960641956438609e-01
2.158960641956438609e-01
2.116927779900649731e-01
2.116927779900649731e-01
2.116927779900649731e-01
2.499044707680550259e-01
2.499044707680550259e-01
2.399694306457776094e-01
2.399694306457776094e-01
2.399694306457776094e-01
2.663354986625907639e-01
2.663354986625907639e-01
2.564004585403133474e-01
2.564004585403133474e-01
2.564004585403133474e-01
2.713030187237294721e-01
2.713030187237294721e-01
2.907909820405044088e-01
2.907909820405044088e-01
2.907909820405044088e-01
2.919373328238440979e-01
2.919373328238440979e-01
2.988154375238822880e-01
2.988154375238822880e-01
2.988154375238822880e-01
3.137179977072984127e-01
3.137179977072984127e-01
3.244172716851356775e-01
3.244172716851356775e-01
3.244172716851356775e-01
2.980512036683224952e-01
2.980512036683224952e-01
3.332059610240733494e-01
3.332059610240733494e-01
3.332059610240733494e-01
3.198318685517768656e-01
3.198318685517768656e-01
3.538402751241879751e-01
3.538402751241879751e-01
3.538402751241879751e-01
3.324417271685135566e-01
3.324417271685135566e-01
3.611004967520061171e-01
3.611004967520061171e-01
3.611004967520061171e-01
3.756209400076423455e-01
3.756209400076423455e-01
3.519296904852884933e-01
3.519296904852884933e-01
3.519296904852884933e-01
3.836453954910202246e-01
3.836453954910202246e-01
3.893771494077187811e-01
3.893771494077187811e-01
3.893771494077187811e-01
3.859380970576996583e-01
3.859380970576996583e-01
4.023691249522353686e-01
4.023691249522353686e-01
4.058081773022544914e-01
4.058081773022544914e-01
4.058081773022544914e-01
4.077187619411539732e-01
4.077187619411539732e-01
4.138326327856324260e-01
4.138326327856324260e-01
4.138326327856324260e-01
3.859380970576996583e-01
3.859380970576996583e-01
3.989300726022163013e-01
3.989300726022163013e-01
3.989300726022163013e-01
3.905235001910584702e-01
3.905235001910584702e-01
4.069545280855941805e-01
4.069545280855941805e-01
4.069545280855941805e-01
4.115399312189529923e-01
4.115399312189529923e-01
4.061902942300343877e-01
4.061902942300343877e-01
4.061902942300343877e-01
4.222392051967902016e-01
4.222392051967902016e-01
4.375238823079862227e-01
4.375238823079862227e-01
4.375238823079862227e-01
4.153611004967520115e-01
4.153611004967520115e-01
4.268246083301490135e-01
4.268246083301490135e-01
4.268246083301490135e-01
4.329384791746274108e-01
4.329384791746274108e-01
4.207107374856706161e-01
4.207107374856706161e-01
4.207107374856706161e-01
4.161253343523118042e-01
4.161253343523118042e-01
4.394344669468857600e-01
4.394344669468857600e-01
4.394344669468857600e-01
4.524264424914023475e-01
4.524264424914023475e-01
4.218570882690103052e-01
4.218570882690103052e-01
4.218570882690103052e-01
4.207107374856706161e-01
4.207107374856706161e-01
4.226213221245700979e-01
4.226213221245700979e-01
4.226213221245700979e-01
4.367596484524264300e-01
4.367596484524264300e-01
4.245319067634696353e-01
4.245319067634696353e-01
4.245319067634696353e-01
4.562476117692013666e-01
4.562476117692013666e-01
4.505158578525028656e-01
4.505158578525028656e-01
4.505158578525028656e-01
4.306457776079480326e-01
4.306457776079480326e-01
4.554833779136415739e-01
4.554833779136415739e-01
4.554833779136415739e-01
4.493695070691631765e-01
4.493695070691631765e-01
4.233855559801299462e-01
4.233855559801299462e-01
4.233855559801299462e-01
4.195643867023309270e-01
4.195643867023309270e-01
4.222392051967902016e-01
4.222392051967902016e-01
4.222392051967902016e-01
4.233855559801299462e-01
4.233855559801299462e-01
4.210928544134505125e-01
4.210928544134505125e-01
4.210928544134505125e-01
4.428735192969048273e-01
4.428735192969048273e-01
4.188001528467711343e-01
4.188001528467711343e-01
4.188001528467711343e-01
4.287351929690485508e-01
4.287351929690485508e-01
4.130683989300725778e-01
4.130683989300725778e-01
4.130683989300725778e-01
4.314100114635078254e-01
4.314100114635078254e-01
4.432556362246847792e-01
4.432556362246847792e-01
4.432556362246847792e-01
4.436377531524646756e-01
4.436377531524646756e-01
4.107756973633931996e-01
4.107756973633931996e-01
4.107756973633931996e-01
4.222392051967902016e-01
4.222392051967902016e-01
4.191822697745510307e-01
4.191822697745510307e-01
4.191822697745510307e-01
4.390523500191058637e-01
4.390523500191058637e-01
4.226213221245700979e-01
4.226213221245700979e-01
4.226213221245700979e-01
4.298815437523882399e-01
4.298815437523882399e-01
4.275888421857088062e-01
4.275888421857088062e-01
4.275888421857088062e-01
4.207107374856706161e-01
4.207107374856706161e-01
3.981658387466564530e-01
3.981658387466564530e-01
3.981658387466564530e-01
4.069545280855941805e-01
4.069545280855941805e-01
3.966373710355368676e-01
3.966373710355368676e-01
3.966373710355368676e-01
4.195643867023309270e-01
4.195643867023309270e-01
4.199465036301108234e-01
4.199465036301108234e-01
4.199465036301108234e-01
4.180359189912112861e-01
4.180359189912112861e-01
3.889950324799388848e-01
3.889950324799388848e-01
3.889950324799388848e-01
3.893771494077187811e-01
3.893771494077187811e-01
4.176538020634313897e-01
4.176538020634313897e-01
4.176538020634313897e-01
3.981658387466564530e-01
3.981658387466564530e-01
3.790599923576614683e-01
3.790599923576614683e-01
3.790599923576614683e-01
3.775315246465418273e-01
3.775315246465418273e-01
3.996943064577760940e-01
3.996943064577760940e-01
3.996943064577760940e-01
3.817348108521207428e-01
3.817348108521207428e-01
3.989300726022163013e-01
3.989300726022163013e-01
3.989300726022163013e-01
3.905235001910584702e-01
3.905235001910584702e-01
3.717997707298433263e-01
3.717997707298433263e-01
3.717997707298433263e-01
3.653037829575850326e-01
3.653037829575850326e-01
3.874665647688192438e-01
3.874665647688192438e-01
3.874665647688192438e-01
3.782957585021016200e-01
3.782957585021016200e-01
3.809705769965609501e-01
3.809705769965609501e-01
3.809705769965609501e-01
3.603362628964463243e-01
3.603362628964463243e-01
3.481085212074894741e-01
3.481085212074894741e-01
3.481085212074894741e-01
3.717997707298433263e-01
3.717997707298433263e-01
3.362628964463125758e-01
3.362628964463125758e-01
3.362628964463125758e-01
3.465800534963698887e-01
3.465800534963698887e-01
3.515475735575085969e-01
3.515475735575085969e-01
3.515475735575085969e-01
3.523118074130683897e-01
3.523118074130683897e-01
3.496369889186091151e-01
3.496369889186091151e-01
3.496369889186091151e-01
3.377913641574321613e-01
3.377913641574321613e-01
3.431410011463507659e-01
3.431410011463507659e-01
3.431410011463507659e-01
3.121895299961788273e-01
3.121895299961788273e-01
3.290026748184944339e-01
3.290026748184944339e-01
3.290026748184944339e-01
3.347344287351929903e-01
3.347344287351929903e-01
3.014902560183416180e-01
3.014902560183416180e-01
3.053114252961406372e-01
3.053114252961406372e-01
3.053114252961406372e-01
2.911730989682843052e-01
2.911730989682843052e-01
3.152464654184180537e-01
3.152464654184180537e-01
3.152464654184180537e-01
3.163928162017577428e-01
3.163928162017577428e-01
2.927015666794038906e-01
2.927015666794038906e-01
2.927015666794038906e-01
3.098968284294994491e-01
3.098968284294994491e-01
2.777990064959877659e-01
2.777990064959877659e-01
2.777990064959877659e-01
2.762705387848681804e-01
2.762705387848681804e-01
2.709209017959495758e-01
2.709209017959495758e-01
2.709209017959495758e-01
2.701566679403897830e-01
2.701566679403897830e-01
2.862055789071455969e-01
2.862055789071455969e-01
2.862055789071455969e-01
2.808559419182269923e-01
2.808559419182269923e-01
2.949942682460833243e-01
2.949942682460833243e-01
2.949942682460833243e-01
2.942300343905234761e-01
2.942300343905234761e-01
2.640427970959113302e-01
2.640427970959113302e-01
2.640427970959113302e-01
2.609858616736721593e-01
2.609858616736721593e-01
2.613679786014520556e-01
2.613679786014520556e-01
2.613679786014520556e-01
2.483760030569354127e-01
2.483760030569354127e-01
2.785632403515475586e-01
2.785632403515475586e-01
2.785632403515475586e-01
2.785632403515475586e-01
2.785632403515475586e-01
2.644249140236912266e-01
2.644249140236912266e-01
2.644249140236912266e-01
2.758884218570882840e-01
2.758884218570882840e-01
2.487581199847153091e-01
2.487581199847153091e-01
2.487581199847153091e-01
2.575468093236530365e-01
2.575468093236530365e-01
2.674818494459304530e-01
2.674818494459304530e-01
2.674818494459304530e-01
2.422621322124570153e-01
2.422621322124570153e-01
2.487581199847153091e-01
2.487581199847153091e-01
2.487581199847153091e-01
2.350019105846389011e-01
2.350019105846389011e-01
2.453190676346962140e-01
2.453190676346962140e-01
2.453190676346962140e-01
2.441727168513565249e-01
2.441727168513565249e-01
2.300343905235001929e-01
2.300343905235001929e-01
2.300343905235001929e-01
2.426442491402369117e-01
2.426442491402369117e-01
2.445548337791364213e-01
2.445548337791364213e-01
2.445548337791364213e-01
2.384409629346579962e-01
2.384409629346579962e-01
2.334734428735192879e-01
2.334734428735192879e-01
2.334734428735192879e-01
2.388230798624378926e-01
2.388230798624378926e-01
2.273595720290408906e-01
2.273595720290408906e-01
2.273595720290408906e-01
2.327092090179594952e-01
2.327092090179594952e-01
2.346197936568590048e-01
2.346197936568590048e-01
2.346197936568590048e-01
2.304165074512800893e-01
2.304165074512800893e-01
2.445548337791364213e-01
2.445548337791364213e-01
2.445548337791364213e-01
2.128391287734046622e-01
2.128391287734046622e-01
2.399694306457776094e-01
2.399694306457776094e-01
2.399694306457776094e-01
2.319449751623997025e-01
2.319449751623997025e-01
2.422621322124570153e-01
2.422621322124570153e-01
2.422621322124570153e-01
2.437905999235766008e-01
2.437905999235766008e-01
2.281238058846006833e-01
2.281238058846006833e-01
2.281238058846006833e-01
2.311807413068398820e-01
2.311807413068398820e-01
2.338555598012991843e-01
2.338555598012991843e-01
2.338555598012991843e-01
2.350019105846389011e-01
2.350019105846389011e-01
2.013756209400076325e-01
2.013756209400076325e-01
2.013756209400076325e-01
2.197172334734428800e-01
2.197172334734428800e-01
2.094000764233855671e-01
2.094000764233855671e-01
2.094000764233855671e-01
2.304165074512800893e-01
2.304165074512800893e-01
2.078716087122659539e-01
2.078716087122659539e-01
2.078716087122659539e-01
2.078716087122659539e-01
2.078716087122659539e-01
1.990829193733282265e-01
1.990829193733282265e-01
1.990829193733282265e-01
1.922048146732900364e-01
1.922048146732900364e-01
2.090179594956056430e-01
2.090179594956056430e-01
2.090179594956056430e-01
1.887657623232709136e-01
1.887657623232709136e-01
2.162781811234237572e-01
2.162781811234237572e-01
2.162781811234237572e-01
2.002292701566679434e-01
2.002292701566679434e-01
1.853267099732518186e-01
1.853267099732518186e-01
1.853267099732518186e-01
2.166602980512036813e-01
2.166602980512036813e-01
1.937332823844096219e-01
1.937332823844096219e-01
1.937332823844096219e-01
1.975544516622086411e-01
1.975544516622086411e-01
1.811234237676729031e-01
1.811234237676729031e-01
1.811234237676729031e-01
2.105464272067252562e-01
2.105464272067252562e-01
2.078716087122659539e-01
2.078716087122659539e-01
2.078716087122659539e-01
2.097821933511654635e-01
2.097821933511654635e-01
1.983186855177684338e-01
1.983186855177684338e-01
1.983186855177684338e-01
1.880015284677111209e-01
1.880015284677111209e-01
1.776843714176538080e-01
1.776843714176538080e-01
1.776843714176538080e-01
1.776843714176538080e-01
1.776843714176538080e-01
1.677493312953763915e-01
1.677493312953763915e-01
1.677493312953763915e-01
1.822697745510126199e-01
1.822697745510126199e-01
1.799770729843332140e-01
1.799770729843332140e-01
1.799770729843332140e-01
1.700420328620557975e-01
1.700420328620557975e-01
1.910584638899503196e-01
1.910584638899503196e-01
1.910584638899503196e-01
1.646923958731371929e-01
1.646923958731371929e-01
1.899121131066106305e-01
1.899121131066106305e-01
1.658387466564768820e-01
1.658387466564768820e-01
1.658387466564768820e-01
1.887657623232709136e-01
1.887657623232709136e-01
1.669850974398165711e-01
1.669850974398165711e-01
1.669850974398165711e-01
1.780664883454337044e-01
1.780664883454337044e-01
1.914405808177302160e-01
1.914405808177302160e-01
1.914405808177302160e-01
1.773022544898739117e-01
1.773022544898739117e-01
1.623996943064577869e-01
1.623996943064577869e-01
1.623996943064577869e-01
1.688956820787160806e-01
1.688956820787160806e-01
1.807413068398930067e-01
1.807413068398930067e-01
1.807413068398930067e-01
1.868551776843714041e-01
1.868551776843714041e-01
1.727168513565150998e-01
1.727168513565150998e-01
1.727168513565150998e-01
1.788307222009934971e-01
1.788307222009934971e-01
1.753916698509744021e-01
1.753916698509744021e-01
1.753916698509744021e-01
1.639281620175773724e-01
1.639281620175773724e-01
1.658387466564768820e-01
1.658387466564768820e-01
1.658387466564768820e-01
1.604891096675582773e-01
1.604891096675582773e-01
1.669850974398165711e-01
1.669850974398165711e-01
1.669850974398165711e-01
1.532288880397401631e-01
1.532288880397401631e-01
1.597248758119984846e-01
1.597248758119984846e-01
1.597248758119984846e-01
1.559037065341994654e-01
1.559037065341994654e-01
1.547573557508597764e-01
1.547573557508597764e-01
1.547573557508597764e-01
1.597248758119984846e-01
1.597248758119984846e-01
1.486434849063813513e-01
1.486434849063813513e-01
1.486434849063813513e-01
1.406190294230034443e-01
1.406190294230034443e-01
1.536110049675200595e-01
1.536110049675200595e-01
1.536110049675200595e-01
1.413832632785632371e-01
1.413832632785632371e-01
1.727168513565150998e-01
1.727168513565150998e-01
1.727168513565150998e-01
1.589606419564386641e-01
1.589606419564386641e-01
1.543752388230798522e-01
1.543752388230798522e-01
1.543752388230798522e-01
1.486434849063813513e-01
1.486434849063813513e-01
1.497898356897210681e-01
1.497898356897210681e-01
1.497898356897210681e-01
1.711883836453954866e-01
1.711883836453954866e-01
1.662208635842567783e-01
1.662208635842567783e-01
1.662208635842567783e-01
1.459686664119220489e-01
1.459686664119220489e-01
1.662208635842567783e-01
1.662208635842567783e-01
1.662208635842567783e-01
1.429117309896828503e-01
1.429117309896828503e-01
1.375620940007642456e-01
1.375620940007642456e-01
1.375620940007642456e-01
1.593427588842185605e-01
1.593427588842185605e-01
1.627818112342376833e-01
1.627818112342376833e-01
1.627818112342376833e-01
1.631639281620175796e-01
1.631639281620175796e-01
1.593427588842185605e-01
1.593427588842185605e-01
1.593427588842185605e-01
1.612533435231180701e-01
1.612533435231180701e-01
1.604891096675582773e-01
1.604891096675582773e-01
1.604891096675582773e-01
1.539931218952999559e-01
1.539931218952999559e-01
1.524646541841803704e-01
1.524646541841803704e-01
1.524646541841803704e-01
1.314482231562858205e-01
1.314482231562858205e-01
1.295376385173863110e-01
1.295376385173863110e-01
1.295376385173863110e-01
1.581964081008788714e-01
1.581964081008788714e-01
1.585785250286587678e-01
1.585785250286587678e-01
1.585785250286587678e-01
1.505540695452808608e-01
1.505540695452808608e-01
1.566679403897592582e-01
1.566679403897592582e-01
1.566679403897592582e-01
1.387084447841039347e-01
1.387084447841039347e-01
1.490256018341612476e-01
1.490256018341612476e-01
1.490256018341612476e-01
1.299197554451662073e-01
1.299197554451662073e-01
1.432938479174627466e-01
1.432938479174627466e-01
1.432938479174627466e-01
1.215131830340084040e-01
1.215131830340084040e-01
1.226595338173481070e-01
1.226595338173481070e-01
1.226595338173481070e-01
1.253343523118074232e-01
1.253343523118074232e-01
1.505540695452808608e-01
1.505540695452808608e-01
1.505540695452808608e-01
1.226595338173481070e-01
1.226595338173481070e-01
1.226595338173481070e-01
1.226595338173481070e-01
1.226595338173481070e-01
1.459686664119220489e-01
1.459686664119220489e-01
1.452044325563622562e-01
1.452044325563622562e-01
1.452044325563622562e-01
1.291555215896064146e-01
1.291555215896064146e-01
1.425296140619029539e-01
1.425296140619029539e-01
1.425296140619029539e-01
1.119602598395108839e-01
1.119602598395108839e-01
1.440580817730225394e-01
1.440580817730225394e-01
1.440580817730225394e-01
1.241880015284677063e-01
1.241880015284677063e-01
1.390905617118838311e-01
1.390905617118838311e-01
1.390905617118838311e-01
1.142529614061902898e-01
1.142529614061902898e-01
1.142529614061902898e-01
1.142529614061902898e-01
1.142529614061902898e-01
1.375620940007642456e-01
1.375620940007642456e-01
1.253343523118074232e-01
1.253343523118074232e-01
1.253343523118074232e-01
1.425296140619029539e-01
1.425296140619029539e-01
1.100496752006113882e-01
1.100496752006113882e-01
1.100496752006113882e-01
1.364157432174245288e-01
1.364157432174245288e-01
1.276270538784868291e-01
1.276270538784868291e-01
1.276270538784868291e-01
1.356515093618647361e-01
1.356515093618647361e-01
1.356515093618647361e-01
1.356515093618647361e-01
1.356515093618647361e-01
1.196025983951089083e-01
1.196025983951089083e-01
1.287734046618265182e-01
1.287734046618265182e-01
1.295376385173863110e-01
1.295376385173863110e-01
1.295376385173863110e-01
1.024073366450133776e-01
1.024073366450133776e-01
1.390905617118838311e-01
1.390905617118838311e-01
1.390905617118838311e-01
1.337409247229652265e-01
1.337409247229652265e-01
1.356515093618647361e-01
1.356515093618647361e-01
1.356515093618647361e-01
1.081390905617118786e-01
1.081390905617118786e-01
1.207489491784486113e-01
1.207489491784486113e-01
1.207489491784486113e-01
1.096675582728314918e-01
1.096675582728314918e-01
1.325945739396255374e-01
1.325945739396255374e-01
1.325945739396255374e-01
1.012609858616736747e-01
1.012609858616736747e-01
1.024073366450133776e-01
1.024073366450133776e-01
1.024073366450133776e-01
1.291555215896064146e-01
1.291555215896064146e-01
1.276270538784868291e-01
1.276270538784868291e-01
1.276270538784868291e-01
1.245701184562476166e-01
1.245701184562476166e-01
1.268628200229270087e-01
1.268628200229270087e-01
1.268628200229270087e-01
1.081390905617118786e-01
1.081390905617118786e-01
1.310661062285059242e-01
1.310661062285059242e-01
1.310661062285059242e-01
1.180741306839892951e-01
1.180741306839892951e-01
1.180741306839892951e-01
1.180741306839892951e-01
1.180741306839892951e-01
9.591134887275505616e-02
9.591134887275505616e-02
1.020252197172334674e-01
1.020252197172334674e-01
1.020252197172334674e-01
1.031715705005731704e-01
1.031715705005731704e-01
9.056171188383645154e-02
9.056171188383645154e-02
9.056171188383645154e-02
1.161635460450897994e-01
1.161635460450897994e-01
1.230416507451280034e-01
1.230416507451280034e-01
1.230416507451280034e-01
9.476499808941536707e-02
9.476499808941536707e-02
1.234237676729079136e-01
1.234237676729079136e-01
1.234237676729079136e-01
9.782193351165456574e-02
9.782193351165456574e-02
1.241880015284677063e-01
1.241880015284677063e-01
1.241880015284677063e-01
1.241880015284677063e-01
1.241880015284677063e-01
1.295376385173863110e-01
1.295376385173863110e-01
1.295376385173863110e-01
9.935040122277416508e-02
9.935040122277416508e-02
1.073748567061520859e-01
1.073748567061520859e-01
1.073748567061520859e-01
1.348872755063049156e-01
1.348872755063049156e-01
1.459686664119220489e-01
1.459686664119220489e-01
1.459686664119220489e-01
1.345051585785250192e-01
1.345051585785250192e-01
1.360336262896446324e-01
1.360336262896446324e-01
1.360336262896446324e-01
1.509361864730607572e-01
1.509361864730607572e-01
1.501719526175009645e-01
1.501719526175009645e-01
1.501719526175009645e-01
1.662208635842567783e-01
1.662208635842567783e-01
1.608712265953381737e-01
1.608712265953381737e-01
1.608712265953381737e-01
1.494077187619411440e-01
1.494077187619411440e-01
1.746274359954146094e-01
1.746274359954146094e-01
1.746274359954146094e-01
1.635460450897974760e-01
1.635460450897974760e-01
1.860909438288116113e-01
1.860909438288116113e-01
1.860909438288116113e-01
1.967902178066488483e-01
1.967902178066488483e-01
1.880015284677111209e-01
1.880015284677111209e-01
1.880015284677111209e-01
1.967902178066488483e-01
1.967902178066488483e-01
2.300343905235001929e-01
2.300343905235001929e-01
2.300343905235001929e-01
2.147497134123041718e-01
2.147497134123041718e-01
2.342376767290791084e-01
2.342376767290791084e-01
2.342376767290791084e-01
2.457011845624761104e-01
2.457011845624761104e-01
2.514329384791746391e-01
2.514329384791746391e-01
2.514329384791746391e-01
2.770347726404279731e-01
2.770347726404279731e-01
2.793274742071073513e-01
2.793274742071073513e-01
2.793274742071073513e-01
2.900267481849446161e-01
2.900267481849446161e-01
2.823844096293465777e-01
2.823844096293465777e-01
2.823844096293465777e-01
2.770347726404279731e-01
2.770347726404279731e-01
2.961406190294230134e-01
2.961406190294230134e-01
2.961406190294230134e-01
3.232709209017959329e-01
3.232709209017959329e-01
3.297669086740542821e-01
3.297669086740542821e-01
3.297669086740542821e-01
3.362628964463125758e-01
3.362628964463125758e-01
3.125716469239587236e-01
3.125716469239587236e-01
3.125716469239587236e-01
3.511654566297287006e-01
3.511654566297287006e-01
3.542223920519679270e-01
3.542223920519679270e-01
3.542223920519679270e-01
3.653037829575850326e-01
3.653037829575850326e-01
3.469621704241497850e-01
3.469621704241497850e-01
3.469621704241497850e-01
3.481085212074894741e-01
3.481085212074894741e-01
3.630110813909055989e-01
3.630110813909055989e-01
3.630110813909055989e-01
3.847917462743599692e-01
3.847917462743599692e-01
3.622468475353458062e-01
3.622468475353458062e-01
3.622468475353458062e-01
3.962552541077569712e-01
3.962552541077569712e-01
3.817348108521207428e-01
3.817348108521207428e-01
3.817348108521207428e-01
3.744745892243026564e-01
3.744745892243026564e-01
3.847917462743599692e-01
3.847917462743599692e-01
3.847917462743599692e-01
3.840275124188001765e-01
3.840275124188001765e-01
4.172716851356514933e-01
4.172716851356514933e-01
4.172716851356514933e-01
4.103935804356133032e-01
4.103935804356133032e-01
3.920519679021780557e-01
3.920519679021780557e-01
3.920519679021780557e-01
3.947267863966373858e-01
3.947267863966373858e-01
3.985479556744364049e-01
3.985479556744364049e-01
3.985479556744364049e-01
3.996943064577760940e-01
3.996943064577760940e-01
4.249140236912495316e-01
4.249140236912495316e-01
4.390523500191058637e-01
4.390523500191058637e-01
4.390523500191058637e-01
4.352311807413068445e-01
4.352311807413068445e-01
4.382881161635460709e-01
4.382881161635460709e-01
4.382881161635460709e-01
4.321742453190676181e-01
4.321742453190676181e-01
4.337027130301872591e-01
4.337027130301872591e-01
4.337027130301872591e-01
4.149789835689721151e-01
4.149789835689721151e-01
4.390523500191058637e-01
4.390523500191058637e-01
4.390523500191058637e-01
4.287351929690485508e-01
4.287351929690485508e-01
4.233855559801299462e-01
4.233855559801299462e-01
4.233855559801299462e-01
4.165074512800917006e-01
4.165074512800917006e-01
4.241497898356897389e-01
4.241497898356897389e-01
4.241497898356897389e-01
4.283530760412686544e-01
4.283530760412686544e-01
4.302636606801681363e-01
4.302636606801681363e-01
4.302636606801681363e-01
4.310278945357279290e-01
4.310278945357279290e-01
4.421092854413450346e-01
4.421092854413450346e-01
4.421092854413450346e-01
4.226213221245700979e-01
4.226213221245700979e-01
4.172716851356514933e-01
4.172716851356514933e-01
4.172716851356514933e-01
4.138326327856324260e-01
4.138326327856324260e-01
4.260603744745892207e-01
4.260603744745892207e-01
4.260603744745892207e-01
4.111578142911730960e-01
4.111578142911730960e-01
4.145968666411922188e-01
4.145968666411922188e-01
4.145968666411922188e-01
4.314100114635078254e-01
4.314100114635078254e-01
4.444019870080244683e-01
4.444019870080244683e-01
4.444019870080244683e-01
4.379059992357661191e-01
4.379059992357661191e-01
4.283530760412686544e-01
4.283530760412686544e-01
4.283530760412686544e-01
4.103935804356133032e-01
4.103935804356133032e-01
4.130683989300725778e-01
4.130683989300725778e-01
4.130683989300725778e-01
4.058081773022544914e-01
4.058081773022544914e-01
4.031333588077951613e-01
4.031333588077951613e-01
4.031333588077951613e-01
4.252961406190294280e-01
4.252961406190294280e-01
4.092472296522736142e-01
4.092472296522736142e-01
4.092472296522736142e-01
4.058081773022544914e-01
4.058081773022544914e-01
4.126862820022926814e-01
4.126862820022926814e-01
4.126862820022926814e-01
4.210928544134505125e-01
4.210928544134505125e-01
3.977837218188765567e-01
3.977837218188765567e-01
3.977837218188765567e-01
4.245319067634696353e-01
4.245319067634696353e-01
4.161253343523118042e-01
4.161253343523118042e-01
4.161253343523118042e-01
4.203286205578907198e-01
4.203286205578907198e-01
4.065724111578142841e-01
4.065724111578142841e-01
4.065724111578142841e-01
4.191822697745510307e-01
4.191822697745510307e-01
3.897592663354986775e-01
3.897592663354986775e-01
3.897592663354986775e-01
4.168895682078715970e-01
4.168895682078715970e-01
3.828811616354604319e-01
3.828811616354604319e-01
3.828811616354604319e-01
3.931983186855177448e-01
3.931983186855177448e-01
3.786778754298815164e-01
3.786778754298815164e-01
3.786778754298815164e-01
3.974016048910966603e-01
3.974016048910966603e-01
4.058081773022544914e-01
4.058081773022544914e-01
4.058081773022544914e-01
4.107756973633931996e-01
4.107756973633931996e-01
3.985479556744364049e-01
3.985479556744364049e-01
3.985479556744364049e-01
3.909056171188383666e-01
3.909056171188383666e-01
3.809705769965609501e-01
3.809705769965609501e-01
3.809705769965609501e-01
3.668322506687046181e-01
3.668322506687046181e-01
3.568972105464272015e-01
3.568972105464272015e-01
3.568972105464272015e-01
3.855559801299197620e-01
3.855559801299197620e-01
3.656858998853649290e-01
3.656858998853649290e-01
3.656858998853649290e-01
3.504012227741689078e-01
3.504012227741689078e-01
3.740924722965227600e-01
3.740924722965227600e-01
3.740924722965227600e-01
3.515475735575085969e-01
3.515475735575085969e-01
3.584256782575467870e-01
3.584256782575467870e-01
3.584256782575467870e-01
3.500191058463890115e-01
3.500191058463890115e-01
3.332059610240733494e-01
3.332059610240733494e-01
3.332059610240733494e-01
3.381734810852120576e-01
3.381734810852120576e-01
3.534581581964080788e-01
3.534581581964080788e-01
3.534581581964080788e-01
3.324417271685135566e-01
3.324417271685135566e-01
3.500191058463890115e-01
3.500191058463890115e-01
3.500191058463890115e-01
3.320596102407336603e-01
3.320596102407336603e-01
3.301490256018341785e-01
3.301490256018341785e-01
3.301490256018341785e-01
3.183034008406572246e-01
3.183034008406572246e-01
3.045471914405808445e-01
3.045471914405808445e-01
3.045471914405808445e-01
3.217424531906763474e-01
3.217424531906763474e-01
3.060756591517004299e-01
3.060756591517004299e-01
3.060756591517004299e-01
3.255636224684753666e-01
3.255636224684753666e-01
2.915552158960642015e-01
2.915552158960642015e-01
2.915552158960642015e-01
3.167749331295376392e-01
3.167749331295376392e-01
3.137179977072984127e-01
3.137179977072984127e-01
3.137179977072984127e-01
2.904088651127245124e-01
2.904088651127245124e-01
2.774168895682078695e-01
2.774168895682078695e-01
2.774168895682078695e-01
2.976690867405425989e-01
2.976690867405425989e-01
2.846771111960260114e-01
2.846771111960260114e-01
2.846771111960260114e-01
2.804738249904470959e-01
2.804738249904470959e-01
2.678639663737103493e-01
2.678639663737103493e-01
2.827665265571264741e-01
2.827665265571264741e-01
2.827665265571264741e-01
2.628964463125716411e-01
2.628964463125716411e-01
2.804738249904470959e-01
2.804738249904470959e-01
2.804738249904470959e-01
2.762705387848681804e-01
2.762705387848681804e-01
2.663354986625907639e-01
2.663354986625907639e-01
2.663354986625907639e-01
2.487581199847153091e-01
2.487581199847153091e-01
2.663354986625907639e-01
2.663354986625907639e-01
2.663354986625907639e-01
2.728314864348490576e-01
2.728314864348490576e-01
2.525792892625143282e-01
2.525792892625143282e-01
2.525792892625143282e-01
2.437905999235766008e-01
2.437905999235766008e-01
2.682460833014902457e-01
2.682460833014902457e-01
2.682460833014902457e-01
2.499044707680550259e-01
2.499044707680550259e-01
2.487581199847153091e-01
2.487581199847153091e-01
2.487581199847153091e-01
2.388230798624378926e-01
2.388230798624378926e-01
2.613679786014520556e-01
2.613679786014520556e-01
2.613679786014520556e-01
2.384409629346579962e-01
2.384409629346579962e-01
2.342376767290791084e-01
2.342376767290791084e-01
2.342376767290791084e-01
2.376767290790982035e-01
2.376767290790982035e-01
2.372946121513183071e-01
2.372946121513183071e-01
2.372946121513183071e-01
2.281238058846006833e-01
2.281238058846006833e-01
2.392051967902178167e-01
2.392051967902178167e-01
2.392051967902178167e-01
2.227741688956820787e-01
2.227741688956820787e-01
2.537256400458540173e-01
2.537256400458540173e-01
2.537256400458540173e-01
2.208635842567825691e-01
2.208635842567825691e-01
2.525792892625143282e-01
2.525792892625143282e-01
2.525792892625143282e-01
2.200993504012227764e-01
2.200993504012227764e-01
2.437905999235766008e-01
2.437905999235766008e-01
2.437905999235766008e-01
2.254489873901413810e-01
2.254489873901413810e-01
2.330913259457393916e-01
2.330913259457393916e-01
2.330913259457393916e-01
2.395873137179977130e-01
2.395873137179977130e-01
2.449369507069163177e-01
2.449369507069163177e-01
2.449369507069163177e-01
2.212457011845624655e-01
2.212457011845624655e-01
2.120748949178448695e-01
2.120748949178448695e-01
2.120748949178448695e-01
2.197172334734428800e-01
2.197172334734428800e-01
2.086358425678257467e-01
2.086358425678257467e-01
2.086358425678257467e-01
2.162781811234237572e-01
2.162781811234237572e-01
2.338555598012991843e-01
2.338555598012991843e-01
2.338555598012991843e-01
2.311807413068398820e-01
2.311807413068398820e-01
2.273595720290408906e-01
2.273595720290408906e-01
2.273595720290408906e-01
2.265953381734810979e-01
2.265953381734810979e-01
2.063431410011463407e-01
2.063431410011463407e-01
2.063431410011463407e-01
2.040504394344669348e-01
2.040504394344669348e-01
2.246847535345815883e-01
2.246847535345815883e-01
2.246847535345815883e-01
1.902942300343905269e-01
1.902942300343905269e-01
2.067252579289262648e-01
2.067252579289262648e-01
2.067252579289262648e-01
2.094000764233855671e-01
2.094000764233855671e-01
2.204814673290026728e-01
2.204814673290026728e-01
2.204814673290026728e-01
1.880015284677111209e-01
1.880015284677111209e-01
2.036683225066870384e-01
2.036683225066870384e-01
2.036683225066870384e-01
2.074894917844860576e-01
2.074894917844860576e-01
2.105464272067252562e-01
2.105464272067252562e-01
2.105464272067252562e-01
2.071073748567061612e-01
2.071073748567061612e-01
1.834161253343523090e-01
1.834161253343523090e-01
1.834161253343523090e-01
1.899121131066106305e-01
1.899121131066106305e-01
1.834161253343523090e-01
1.834161253343523090e-01
1.834161253343523090e-01
2.021398547955674529e-01
2.021398547955674529e-01
2.078716087122659539e-01
2.078716087122659539e-01
2.078716087122659539e-01
1.964081008788689242e-01
1.964081008788689242e-01
2.040504394344669348e-01
2.040504394344669348e-01
2.040504394344669348e-01
1.730989682842949962e-01
1.730989682842949962e-01
1.826518914787925163e-01
1.826518914787925163e-01
1.826518914787925163e-01
1.891478792510508100e-01
1.891478792510508100e-01
1.784486052732136008e-01
1.784486052732136008e-01
1.784486052732136008e-01
1.994650363011081506e-01
1.994650363011081506e-01
1.795949560565533176e-01
1.795949560565533176e-01
1.795949560565533176e-01
1.887657623232709136e-01
1.887657623232709136e-01
1.738632021398547889e-01
1.738632021398547889e-01
1.738632021398547889e-01
1.929690485288498292e-01
1.929690485288498292e-01
1.669850974398165711e-01
1.669850974398165711e-01
1.669850974398165711e-01
1.964081008788689242e-01
1.964081008788689242e-01
1.807413068398930067e-01
1.807413068398930067e-01
1.807413068398930067e-01
1.639281620175773724e-01
1.639281620175773724e-01
1.868551776843714041e-01
1.868551776843714041e-01
1.868551776843714041e-01
1.669850974398165711e-01
1.669850974398165711e-01
1.799770729843332140e-01
1.799770729843332140e-01
1.799770729843332140e-01
1.883836453954910173e-01
1.883836453954910173e-01
1.727168513565150998e-01
1.727168513565150998e-01
1.727168513565150998e-01
1.883836453954910173e-01
1.883836453954910173e-01
1.876194115399312246e-01
1.876194115399312246e-01
1.876194115399312246e-01
1.597248758119984846e-01
1.597248758119984846e-01
1.727168513565150998e-01
1.727168513565150998e-01
1.803591899121131104e-01
1.803591899121131104e-01
1.803591899121131104e-01
1.826518914787925163e-01
1.826518914787925163e-01
1.780664883454337044e-01
1.780664883454337044e-01
1.780664883454337044e-01
1.505540695452808608e-01
1.505540695452808608e-01
1.452044325563622562e-01
1.452044325563622562e-01
1.452044325563622562e-01
1.566679403897592582e-01
1.566679403897592582e-01
1.513183034008406536e-01
1.513183034008406536e-01
1.513183034008406536e-01
1.505540695452808608e-01
1.505540695452808608e-01
1.711883836453954866e-01
1.711883836453954866e-01
1.711883836453954866e-01
1.669850974398165711e-01
1.669850974398165711e-01
1.635460450897974760e-01
1.635460450897974760e-01
1.635460450897974760e-01
1.436759648452426430e-01
1.436759648452426430e-01
1.589606419564386641e-01
1.589606419564386641e-01
1.589606419564386641e-01
1.398547955674436516e-01
1.398547955674436516e-01
1.436759648452426430e-01
1.436759648452426430e-01
1.436759648452426430e-01
1.723347344287352034e-01
1.723347344287352034e-01
1.574321742453190787e-01
1.574321742453190787e-01
1.574321742453190787e-01
1.673672143675964952e-01
1.673672143675964952e-01
1.673672143675964952e-01
1.673672143675964952e-01
1.673672143675964952e-01
1.471150171952617380e-01
1.471150171952617380e-01
1.452044325563622562e-01
1.452044325563622562e-01
1.452044325563622562e-01
1.425296140619029539e-01
1.425296140619029539e-01
1.467329002674818417e-01
1.467329002674818417e-01
1.467329002674818417e-01
1.570500573175391545e-01
1.570500573175391545e-01
1.329766908674054338e-01
1.329766908674054338e-01
1.329766908674054338e-01
1.410011463507833407e-01
1.410011463507833407e-01
1.379442109285441420e-01
1.379442109285441420e-01
1.379442109285441420e-01
1.421474971341230298e-01
1.421474971341230298e-01
1.654566297286969856e-01
1.654566297286969856e-01
1.654566297286969856e-01
1.348872755063049156e-01
1.348872755063049156e-01
1.486434849063813513e-01
1.486434849063813513e-01
1.486434849063813513e-01
1.364157432174245288e-01
1.364157432174245288e-01
1.406190294230034443e-01
1.406190294230034443e-01
1.406190294230034443e-01
1.513183034008406536e-01
1.513183034008406536e-01
1.562858234619793618e-01
1.562858234619793618e-01
1.562858234619793618e-01
1.562858234619793618e-01
1.562858234619793618e-01
1.356515093618647361e-01
1.356515093618647361e-01
1.356515093618647361e-01
1.562858234619793618e-01
1.562858234619793618e-01
1.379442109285441420e-01
1.379442109285441420e-01
1.379442109285441420e-01
1.306839893007260278e-01
1.306839893007260278e-01
1.513183034008406536e-01
1.513183034008406536e-01
1.513183034008406536e-01
1.364157432174245288e-01
1.364157432174245288e-01
1.161635460450897994e-01
1.161635460450897994e-01
1.161635460450897994e-01
1.222774168895682106e-01
1.222774168895682106e-01
1.375620940007642456e-01
1.375620940007642456e-01
1.375620940007642456e-01
1.180741306839892951e-01
1.180741306839892951e-01
1.440580817730225394e-01
1.440580817730225394e-01
1.440580817730225394e-01
1.387084447841039347e-01
1.387084447841039347e-01
1.394726786396637275e-01
1.394726786396637275e-01
1.394726786396637275e-01
1.134887275506304971e-01
1.134887275506304971e-01
1.379442109285441420e-01
1.379442109285441420e-01
1.379442109285441420e-01
1.425296140619029539e-01
1.425296140619029539e-01
1.142529614061902898e-01
1.142529614061902898e-01
1.142529614061902898e-01
1.455865494841421526e-01
1.455865494841421526e-01
1.108139090561711948e-01
1.108139090561711948e-01
1.108139090561711948e-01
1.394726786396637275e-01
1.394726786396637275e-01
1.333588077951853301e-01
1.333588077951853301e-01
1.333588077951853301e-01
1.085212074894917889e-01
1.085212074894917889e-01
1.322124570118456133e-01
1.322124570118456133e-01
1.322124570118456133e-01
1.260985861673672159e-01
1.260985861673672159e-01
1.108139090561711948e-01
1.108139090561711948e-01
1.108139090561711948e-01
1.138708444784103935e-01
1.138708444784103935e-01
1.367978601452044252e-01
1.367978601452044252e-01
1.367978601452044252e-01
1.245701184562476166e-01
1.245701184562476166e-01
1.222774168895682106e-01
1.222774168895682106e-01
1.222774168895682106e-01
1.345051585785250192e-01
1.345051585785250192e-01
1.245701184562476166e-01
1.245701184562476166e-01
1.245701184562476166e-01
1.318303400840657169e-01
1.318303400840657169e-01
1.367978601452044252e-01
1.367978601452044252e-01
1.367978601452044252e-01
1.257164692395873196e-01
1.257164692395873196e-01
1.012609858616736747e-01
1.012609858616736747e-01
1.012609858616736747e-01
1.329766908674054338e-01
1.329766908674054338e-01
1.008788689338937783e-01
1.008788689338937783e-01
1.008788689338937783e-01
1.062285059228123829e-01
1.062285059228123829e-01
1.008788689338937783e-01
1.008788689338937783e-01
1.008788689338937783e-01
1.295376385173863110e-01
1.295376385173863110e-01
1.066106228505922793e-01
1.066106228505922793e-01
1.066106228505922793e-01
9.782193351165456574e-02
9.782193351165456574e-02
1.329766908674054338e-01
1.329766908674054338e-01
1.329766908674054338e-01
1.008788689338937783e-01
1.008788689338937783e-01
1.314482231562858205e-01
1.314482231562858205e-01
1.314482231562858205e-01
9.935040122277416508e-02
9.935040122277416508e-02
1.306839893007260278e-01
1.306839893007260278e-01
9.858616736721437235e-02
9.858616736721437235e-02
9.858616736721437235e-02
1.325945739396255374e-01
1.325945739396255374e-01
1.303018723729461315e-01
1.303018723729461315e-01
1.303018723729461315e-01
9.973251815055407532e-02
9.973251815055407532e-02
1.264807030951471123e-01
1.264807030951471123e-01
1.264807030951471123e-01
1.245701184562476166e-01
1.245701184562476166e-01
9.667558272831486277e-02
9.667558272831486277e-02
9.667558272831486277e-02
1.131066106228505869e-01
1.131066106228505869e-01
1.230416507451280034e-01
1.230416507451280034e-01
1.230416507451280034e-01
1.173098968284295024e-01
1.173098968284295024e-01
1.253343523118074232e-01
1.253343523118074232e-01
1.253343523118074232e-01
1.081390905617118786e-01
1.081390905617118786e-01
1.306839893007260278e-01
1.306839893007260278e-01
1.306839893007260278e-01
