3.668322506687046181e-01
3.668322506687046181e-01
3.668322506687046181e-01
3.523118074130683897e-01
3.523118074130683897e-01
3.439052350019105586e-01
3.439052350019105586e-01
3.439052350019105586e-01
3.465800534963698887e-01
3.465800534963698887e-01
3.393198318685518022e-01
3.393198318685518022e-01
3.393198318685518022e-01
3.534581581964080788e-01
3.534581581964080788e-01
3.328238440962934530e-01
3.328238440962934530e-01
3.328238440962934530e-01
3.374092472296522649e-01
3.374092472296522649e-01
3.385555980129919540e-01
3.385555980129919540e-01
3.385555980129919540e-01
3.435231180741306622e-01
3.435231180741306622e-01
3.286205578907145375e-01
3.286205578907145375e-01
3.286205578907145375e-01
3.408482995796713877e-01
3.408482995796713877e-01
3.270920901795949520e-01
3.270920901795949520e-01
3.270920901795949520e-01
3.351165456629728867e-01
3.351165456629728867e-01
3.190676346962170173e-01
3.190676346962170173e-01
3.190676346962170173e-01
3.351165456629728867e-01
3.351165456629728867e-01
3.083683607183798081e-01
3.083683607183798081e-01
3.083683607183798081e-01
3.110431792128391382e-01
3.110431792128391382e-01
3.213603362628964510e-01
3.213603362628964510e-01
3.213603362628964510e-01
3.263278563240351593e-01
3.263278563240351593e-01
3.003439052350019289e-01
3.003439052350019289e-01
3.003439052350019289e-01
3.098968284294994491e-01
3.098968284294994491e-01
3.160106992739778464e-01
3.160106992739778464e-01
3.160106992739778464e-01
2.999617883072220326e-01
2.999617883072220326e-01
2.892625143293847678e-01
2.892625143293847678e-01
2.892625143293847678e-01
3.083683607183798081e-01
3.083683607183798081e-01
2.823844096293465777e-01
2.823844096293465777e-01
2.823844096293465777e-01
3.056935422239205336e-01
3.056935422239205336e-01
2.823844096293465777e-01
2.823844096293465777e-01
2.823844096293465777e-01
2.892625143293847678e-01
2.892625143293847678e-01
2.709209017959495758e-01
2.709209017959495758e-01
2.709209017959495758e-01
2.842949942682460596e-01
2.842949942682460596e-01
2.667176155903706603e-01
2.667176155903706603e-01
2.667176155903706603e-01
2.766526557126480768e-01
2.766526557126480768e-01
2.670997325181505566e-01
2.670997325181505566e-01
2.670997325181505566e-01
2.774168895682078695e-01
2.774168895682078695e-01
2.751241880015284913e-01
2.751241880015284913e-01
2.751241880015284913e-01
2.602216278181123665e-01
2.602216278181123665e-01
2.686282002292701421e-01
2.686282002292701421e-01
2.686282002292701421e-01
2.445548337791364213e-01
2.445548337791364213e-01
2.468475353458158272e-01
2.468475353458158272e-01
2.468475353458158272e-01
2.613679786014520556e-01
2.613679786014520556e-01
2.502865876958349500e-01
2.502865876958349500e-01
2.502865876958349500e-01
2.457011845624761104e-01
2.457011845624761104e-01
2.606037447458922629e-01
2.606037447458922629e-01
2.606037447458922629e-01
2.357661444401986939e-01
2.357661444401986939e-01
2.346197936568590048e-01
2.346197936568590048e-01
2.346197936568590048e-01
2.265953381734810979e-01
2.265953381734810979e-01
2.254489873901413810e-01
2.254489873901413810e-01
2.254489873901413810e-01
2.441727168513565249e-01
2.441727168513565249e-01
2.296522735957202965e-01
2.296522735957202965e-01
2.296522735957202965e-01
2.170424149789835777e-01
2.170424149789835777e-01
2.277416889568207869e-01
2.277416889568207869e-01
2.277416889568207869e-01
2.365303782957585144e-01
2.365303782957585144e-01
2.139854795567443513e-01
2.139854795567443513e-01
2.139854795567443513e-01
2.243026366068016919e-01
2.243026366068016919e-01
2.227741688956820787e-01
2.227741688956820787e-01
2.227741688956820787e-01
2.051967902178066516e-01
2.051967902178066516e-01
2.158960641956438609e-01
2.158960641956438609e-01
2.158960641956438609e-01
1.979365685899885374e-01
1.979365685899885374e-01
2.212457011845624655e-01
2.212457011845624655e-01
2.212457011845624655e-01
2.051967902178066516e-01
2.051967902178066516e-01
2.025219717233473493e-01
2.025219717233473493e-01
2.025219717233473493e-01
2.124570118456247658e-01
2.124570118456247658e-01
1.975544516622086411e-01
1.975544516622086411e-01
1.975544516622086411e-01
2.155139472678639645e-01
2.155139472678639645e-01
1.941153993121895183e-01
1.941153993121895183e-01
1.941153993121895183e-01
2.074894917844860576e-01
2.074894917844860576e-01
2.017577378677875566e-01
2.017577378677875566e-01
2.017577378677875566e-01
1.887657623232709136e-01
1.887657623232709136e-01
2.128391287734046622e-01
2.128391287734046622e-01
2.128391287734046622e-01
2.078716087122659539e-01
2.078716087122659539e-01
2.036683225066870384e-01
2.036683225066870384e-01
2.036683225066870384e-01
1.784486052732136008e-01
1.784486052732136008e-01
1.902942300343905269e-01
1.902942300343905269e-01
1.902942300343905269e-01
1.956438670233091315e-01
1.956438670233091315e-01
2.013756209400076325e-01
2.013756209400076325e-01
2.013756209400076325e-01
1.792128391287733935e-01
1.792128391287733935e-01
1.826518914787925163e-01
1.826518914787925163e-01
1.826518914787925163e-01
1.688956820787160806e-01
1.688956820787160806e-01
1.960259839510890278e-01
1.960259839510890278e-01
1.746274359954146094e-01
1.746274359954146094e-01
1.746274359954146094e-01
1.746274359954146094e-01
1.746274359954146094e-01
1.868551776843714041e-01
1.868551776843714041e-01
1.868551776843714041e-01
1.876194115399312246e-01
1.876194115399312246e-01
1.719526175009552793e-01
1.719526175009552793e-01
1.719526175009552793e-01
1.654566297286969856e-01
1.654566297286969856e-01
1.876194115399312246e-01
1.876194115399312246e-01
1.876194115399312246e-01
1.669850974398165711e-01
1.669850974398165711e-01
1.761559037065341948e-01
1.761559037065341948e-01
1.761559037065341948e-01
1.776843714176538080e-01
1.776843714176538080e-01
1.857088269010317150e-01
1.857088269010317150e-01
1.857088269010317150e-01
1.792128391287733935e-01
1.792128391287733935e-01
1.776843714176538080e-01
1.776843714176538080e-01
1.776843714176538080e-01
1.711883836453954866e-01
1.711883836453954866e-01
1.601069927397783810e-01
1.601069927397783810e-01
1.601069927397783810e-01
1.788307222009934971e-01
1.788307222009934971e-01
1.788307222009934971e-01
1.788307222009934971e-01
1.788307222009934971e-01
1.799770729843332140e-01
1.799770729843332140e-01
1.795949560565533176e-01
1.795949560565533176e-01
1.795949560565533176e-01
1.643102789453572687e-01
1.643102789453572687e-01
1.543752388230798522e-01
1.543752388230798522e-01
1.543752388230798522e-01
1.658387466564768820e-01
1.658387466564768820e-01
1.742453190676346853e-01
1.742453190676346853e-01
1.742453190676346853e-01
1.776843714176538080e-01
1.776843714176538080e-01
1.715705005731753829e-01
1.715705005731753829e-01
1.715705005731753829e-01
1.578142911730989750e-01
1.578142911730989750e-01
1.734810852120748925e-01
1.734810852120748925e-01
1.734810852120748925e-01
1.799770729843332140e-01
1.799770729843332140e-01
1.719526175009552793e-01
1.719526175009552793e-01
1.719526175009552793e-01
1.551394726786396727e-01
1.551394726786396727e-01
1.753916698509744021e-01
1.753916698509744021e-01
1.753916698509744021e-01
1.765380206343140912e-01
1.765380206343140912e-01
1.555215896064195691e-01
1.555215896064195691e-01
1.555215896064195691e-01
1.551394726786396727e-01
1.551394726786396727e-01
1.505540695452808608e-01
1.505540695452808608e-01
1.505540695452808608e-01
1.474971341230416622e-01
1.474971341230416622e-01
1.482613679786014549e-01
1.482613679786014549e-01
1.482613679786014549e-01
1.471150171952617380e-01
1.471150171952617380e-01
1.547573557508597764e-01
1.547573557508597764e-01
1.547573557508597764e-01
1.463507833397019453e-01
1.463507833397019453e-01
1.593427588842185605e-01
1.593427588842185605e-01
1.593427588842185605e-01
1.524646541841803704e-01
1.524646541841803704e-01
1.570500573175391545e-01
1.570500573175391545e-01
1.570500573175391545e-01
1.688956820787160806e-01
1.688956820787160806e-01
1.562858234619793618e-01
1.562858234619793618e-01
1.562858234619793618e-01
1.463507833397019453e-01
1.463507833397019453e-01
1.474971341230416622e-01
1.474971341230416622e-01
1.474971341230416622e-01
1.566679403897592582e-01
1.566679403897592582e-01
1.685135651509361843e-01
1.685135651509361843e-01
1.685135651509361843e-01
1.425296140619029539e-01
1.425296140619029539e-01
1.452044325563622562e-01
1.452044325563622562e-01
1.452044325563622562e-01
1.425296140619029539e-01
1.425296140619029539e-01
1.471150171952617380e-01
1.471150171952617380e-01
1.471150171952617380e-01
1.646923958731371929e-01
1.646923958731371929e-01
1.562858234619793618e-01
1.562858234619793618e-01
1.562858234619793618e-01
1.494077187619411440e-01
1.494077187619411440e-01
1.513183034008406536e-01
1.513183034008406536e-01
1.513183034008406536e-01
1.379442109285441420e-01
1.379442109285441420e-01
1.627818112342376833e-01
1.627818112342376833e-01
1.627818112342376833e-01
1.562858234619793618e-01
1.562858234619793618e-01
1.402369124952235480e-01
1.402369124952235480e-01
1.402369124952235480e-01
1.574321742453190787e-01
1.574321742453190787e-01
1.593427588842185605e-01
1.593427588842185605e-01
1.593427588842185605e-01
1.371799770729843215e-01
1.371799770729843215e-01
1.608712265953381737e-01
1.608712265953381737e-01
1.608712265953381737e-01
1.394726786396637275e-01
1.394726786396637275e-01
1.520825372564004463e-01
1.520825372564004463e-01
1.520825372564004463e-01
1.356515093618647361e-01
1.356515093618647361e-01
1.459686664119220489e-01
1.459686664119220489e-01
1.459686664119220489e-01
1.348872755063049156e-01
1.348872755063049156e-01
1.494077187619411440e-01
1.494077187619411440e-01
1.494077187619411440e-01
1.367978601452044252e-01
1.367978601452044252e-01
1.597248758119984846e-01
1.597248758119984846e-01
1.597248758119984846e-01
1.398547955674436516e-01
1.398547955674436516e-01
1.494077187619411440e-01
1.494077187619411440e-01
1.494077187619411440e-01
1.551394726786396727e-01
1.551394726786396727e-01
1.356515093618647361e-01
1.356515093618647361e-01
1.356515093618647361e-01
1.429117309896828503e-01
1.429117309896828503e-01
1.452044325563622562e-01
1.452044325563622562e-01
1.452044325563622562e-01
1.291555215896064146e-01
1.291555215896064146e-01
1.390905617118838311e-01
1.390905617118838311e-01
1.329766908674054338e-01
1.329766908674054338e-01
1.329766908674054338e-01
1.406190294230034443e-01
1.406190294230034443e-01
1.410011463507833407e-01
1.410011463507833407e-01
1.410011463507833407e-01
1.524646541841803704e-01
1.524646541841803704e-01
1.360336262896446324e-01
1.360336262896446324e-01
1.360336262896446324e-01
1.482613679786014549e-01
1.482613679786014549e-01
1.318303400840657169e-01
1.318303400840657169e-01
1.318303400840657169e-01
1.536110049675200595e-01
1.536110049675200595e-01
1.509361864730607572e-01
1.509361864730607572e-01
1.509361864730607572e-01
1.421474971341230298e-01
1.421474971341230298e-01
1.410011463507833407e-01
1.410011463507833407e-01
1.410011463507833407e-01
1.299197554451662073e-01
1.299197554451662073e-01
1.226595338173481070e-01
1.226595338173481070e-01
1.226595338173481070e-01
1.394726786396637275e-01
1.394726786396637275e-01
1.196025983951089083e-01
1.196025983951089083e-01
1.196025983951089083e-01
1.432938479174627466e-01
1.432938479174627466e-01
1.199847153228888047e-01
1.199847153228888047e-01
1.199847153228888047e-01
1.192204814673289981e-01
1.192204814673289981e-01
1.287734046618265182e-01
1.287734046618265182e-01
1.287734046618265182e-01
1.402369124952235480e-01
1.402369124952235480e-01
1.410011463507833407e-01
1.410011463507833407e-01
1.410011463507833407e-01
1.452044325563622562e-01
1.452044325563622562e-01
1.417653802063431334e-01
1.417653802063431334e-01
1.417653802063431334e-01
1.425296140619029539e-01
1.425296140619029539e-01
1.318303400840657169e-01
1.318303400840657169e-01
1.318303400840657169e-01
1.176920137562093988e-01
1.176920137562093988e-01
1.134887275506304971e-01
1.134887275506304971e-01
1.134887275506304971e-01
1.390905617118838311e-01
1.390905617118838311e-01
1.379442109285441420e-01
1.379442109285441420e-01
1.379442109285441420e-01
1.333588077951853301e-01
1.333588077951853301e-01
1.153993121895299928e-01
1.153993121895299928e-01
1.153993121895299928e-01
1.196025983951089083e-01
1.196025983951089083e-01
1.180741306839892951e-01
1.180741306839892951e-01
1.180741306839892951e-01
1.268628200229270087e-01
1.268628200229270087e-01
1.184562476117692054e-01
1.184562476117692054e-01
1.184562476117692054e-01
1.123423767672907941e-01
1.123423767672907941e-01
1.192204814673289981e-01
1.192204814673289981e-01
1.192204814673289981e-01
1.184562476117692054e-01
1.184562476117692054e-01
1.157814291173099031e-01
1.157814291173099031e-01
1.157814291173099031e-01
1.180741306839892951e-01
1.180741306839892951e-01
1.123423767672907941e-01
1.123423767672907941e-01
1.123423767672907941e-01
1.085212074894917889e-01
1.085212074894917889e-01
1.280091708062667255e-01
1.280091708062667255e-01
1.280091708062667255e-01
1.180741306839892951e-01
1.180741306839892951e-01
1.031715705005731704e-01
1.031715705005731704e-01
1.031715705005731704e-01
1.222774168895682106e-01
1.222774168895682106e-01
9.935040122277416508e-02
9.935040122277416508e-02
9.935040122277416508e-02
1.234237676729079136e-01
1.234237676729079136e-01
1.066106228505922793e-01
1.066106228505922793e-01
1.066106228505922793e-01
1.138708444784103935e-01
1.138708444784103935e-01
1.119602598395108839e-01
1.119602598395108839e-01
1.119602598395108839e-01
1.050821551394726799e-01
1.050821551394726799e-01
1.241880015284677063e-01
1.241880015284677063e-01
1.241880015284677063e-01
9.935040122277416508e-02
9.935040122277416508e-02
1.058463889950324865e-01
1.058463889950324865e-01
1.058463889950324865e-01
1.260985861673672159e-01
1.260985861673672159e-01
1.157814291173099031e-01
1.157814291173099031e-01
1.157814291173099031e-01
1.020252197172334674e-01
1.020252197172334674e-01
1.020252197172334674e-01
1.020252197172334674e-01
1.020252197172334674e-01
1.035536874283530806e-01
1.035536874283530806e-01
1.008788689338937783e-01
1.008788689338937783e-01
1.008788689338937783e-01
1.043179212839128733e-01
1.043179212839128733e-01
1.081390905617118786e-01
1.081390905617118786e-01
1.081390905617118786e-01
1.085212074894917889e-01
1.085212074894917889e-01
1.234237676729079136e-01
1.234237676729079136e-01
1.234237676729079136e-01
1.146350783339702001e-01
1.146350783339702001e-01
1.089033244172716852e-01
1.089033244172716852e-01
1.089033244172716852e-01
1.096675582728314918e-01
1.096675582728314918e-01
1.123423767672907941e-01
1.123423767672907941e-01
1.123423767672907941e-01
1.196025983951089083e-01
1.196025983951089083e-01
1.299197554451662073e-01
1.299197554451662073e-01
1.299197554451662073e-01
1.482613679786014549e-01
1.482613679786014549e-01
1.303018723729461315e-01
1.303018723729461315e-01
1.303018723729461315e-01
1.421474971341230298e-01
1.421474971341230298e-01
1.455865494841421526e-01
1.455865494841421526e-01
1.455865494841421526e-01
1.524646541841803704e-01
1.524646541841803704e-01
1.517004203286205499e-01
1.517004203286205499e-01
1.517004203286205499e-01
1.604891096675582773e-01
1.604891096675582773e-01
1.650745128009170892e-01
1.650745128009170892e-01
1.650745128009170892e-01
1.776843714176538080e-01
1.776843714176538080e-01
2.036683225066870384e-01
2.036683225066870384e-01
2.059610240733664444e-01
2.059610240733664444e-01
2.059610240733664444e-01
1.975544516622086411e-01
1.975544516622086411e-01
2.128391287734046622e-01
2.128391287734046622e-01
2.128391287734046622e-01
2.285059228123805797e-01
2.285059228123805797e-01
2.128391287734046622e-01
2.128391287734046622e-01
2.128391287734046622e-01
2.304165074512800893e-01
2.304165074512800893e-01
2.277416889568207869e-01
2.277416889568207869e-01
2.277416889568207869e-01
2.445548337791364213e-01
2.445548337791364213e-01
2.445548337791364213e-01
2.445548337791364213e-01
2.445548337791364213e-01
2.445548337791364213e-01
2.445548337791364213e-01
2.728314864348490576e-01
2.728314864348490576e-01
2.728314864348490576e-01
2.552541077569736583e-01
2.552541077569736583e-01
2.743599541459686431e-01
2.743599541459686431e-01
2.743599541459686431e-01
2.888803974016048715e-01
2.888803974016048715e-01
2.774168895682078695e-01
2.774168895682078695e-01
2.774168895682078695e-01
2.835307604126862668e-01
2.835307604126862668e-01
3.003439052350019289e-01
3.003439052350019289e-01
3.003439052350019289e-01
3.041650745128008926e-01
3.041650745128008926e-01
3.041650745128008926e-01
3.041650745128008926e-01
3.041650745128008926e-01
3.076041268628200154e-01
3.076041268628200154e-01
2.988154375238822880e-01
2.988154375238822880e-01
2.988154375238822880e-01
3.060756591517004299e-01
3.060756591517004299e-01
3.186855177684371210e-01
3.186855177684371210e-01
3.186855177684371210e-01
3.236530378295758292e-01
3.236530378295758292e-01
3.133358807795185164e-01
3.133358807795185164e-01
3.133358807795185164e-01
3.282384409629346411e-01
3.282384409629346411e-01
3.366450133740924722e-01
3.366450133740924722e-01
3.366450133740924722e-01
3.377913641574321613e-01
3.377913641574321613e-01
3.461979365685899923e-01
3.461979365685899923e-01
3.461979365685899923e-01
3.354986625907527831e-01
3.354986625907527831e-01
3.366450133740924722e-01
3.366450133740924722e-01
3.366450133740924722e-01
3.469621704241497850e-01
3.469621704241497850e-01
3.458158196408100959e-01
3.458158196408100959e-01
3.458158196408100959e-01
3.511654566297287006e-01
3.511654566297287006e-01
3.591899121131066352e-01
3.591899121131066352e-01
3.591899121131066352e-01
3.374092472296522649e-01
3.374092472296522649e-01
3.568972105464272015e-01
3.568972105464272015e-01
3.568972105464272015e-01
3.393198318685518022e-01
3.393198318685518022e-01
3.507833397019488042e-01
3.507833397019488042e-01
3.507833397019488042e-01
3.561329766908674088e-01
3.561329766908674088e-01
3.618647306075659098e-01
3.618647306075659098e-01
3.618647306075659098e-01
3.423767672907909732e-01
3.423767672907909732e-01
3.672143675964845144e-01
3.672143675964845144e-01
3.672143675964845144e-01
3.633931983186854953e-01
3.633931983186854953e-01
3.645395491020252399e-01
3.645395491020252399e-01
3.645395491020252399e-01
3.458158196408100959e-01
3.458158196408100959e-01
3.656858998853649290e-01
3.656858998853649290e-01
3.656858998853649290e-01
3.649216660298051362e-01
3.649216660298051362e-01
3.553687428353076161e-01
3.553687428353076161e-01
3.553687428353076161e-01
3.576614444019869943e-01
3.576614444019869943e-01
3.687428353076040999e-01
3.687428353076040999e-01
3.687428353076040999e-01
3.584256782575467870e-01
3.584256782575467870e-01
3.641574321742453435e-01
3.641574321742453435e-01
3.641574321742453435e-01
3.427588842185708695e-01
3.427588842185708695e-01
3.435231180741306622e-01
3.435231180741306622e-01
3.435231180741306622e-01
3.534581581964080788e-01
3.534581581964080788e-01
3.523118074130683897e-01
3.523118074130683897e-01
3.523118074130683897e-01
3.439052350019105586e-01
3.439052350019105586e-01
3.641574321742453435e-01
3.641574321742453435e-01
3.641574321742453435e-01
3.546045089797478234e-01
3.546045089797478234e-01
3.362628964463125758e-01
3.362628964463125758e-01
3.362628964463125758e-01
3.320596102407336603e-01
3.320596102407336603e-01
3.515475735575085969e-01
3.515475735575085969e-01
3.515475735575085969e-01
3.419946503630110768e-01
3.419946503630110768e-01
3.332059610240733494e-01
3.332059610240733494e-01
3.332059610240733494e-01
3.561329766908674088e-01
3.561329766908674088e-01
3.389377149407718504e-01
3.389377149407718504e-01
3.389377149407718504e-01
3.263278563240351593e-01
3.263278563240351593e-01
3.477264042797095778e-01
3.477264042797095778e-01
3.477264042797095778e-01
3.385555980129919540e-01
3.385555980129919540e-01
3.293847917462743857e-01
3.293847917462743857e-01
3.293847917462743857e-01
3.301490256018341785e-01
3.301490256018341785e-01
3.213603362628964510e-01
3.213603362628964510e-01
3.213603362628964510e-01
3.354986625907527831e-01
3.354986625907527831e-01
3.347344287351929903e-01
3.347344287351929903e-01
3.347344287351929903e-01
3.190676346962170173e-01
3.190676346962170173e-01
3.175391669850974319e-01
3.175391669850974319e-01
3.175391669850974319e-01
3.362628964463125758e-01
3.362628964463125758e-01
3.106610622850592418e-01
3.106610622850592418e-01
3.106610622850592418e-01
3.328238440962934530e-01
3.328238440962934530e-01
3.343523118074130940e-01
3.343523118074130940e-01
3.343523118074130940e-01
3.163928162017577428e-01
3.163928162017577428e-01
3.274742071073748484e-01
3.274742071073748484e-01
3.034008406572410999e-01
3.034008406572410999e-01
3.034008406572410999e-01
3.095147115017195527e-01
3.095147115017195527e-01
3.018723729461215144e-01
3.018723729461215144e-01
3.018723729461215144e-01
3.217424531906763474e-01
3.217424531906763474e-01
2.972869698127627025e-01
2.972869698127627025e-01
2.972869698127627025e-01
2.892625143293847678e-01
2.892625143293847678e-01
2.911730989682843052e-01
2.911730989682843052e-01
2.911730989682843052e-01
2.961406190294230134e-01
2.961406190294230134e-01
3.041650745128008926e-01
3.041650745128008926e-01
3.041650745128008926e-01
3.011081390905617217e-01
3.011081390905617217e-01
2.930836836071837870e-01
2.930836836071837870e-01
2.930836836071837870e-01
2.911730989682843052e-01
2.911730989682843052e-01
2.812380588460068886e-01
2.812380588460068886e-01
2.812380588460068886e-01
2.823844096293465777e-01
2.823844096293465777e-01
2.751241880015284913e-01
2.751241880015284913e-01
2.751241880015284913e-01
2.697745510126098312e-01
2.697745510126098312e-01
2.678639663737103493e-01
2.678639663737103493e-01
2.678639663737103493e-01
2.923194497516239942e-01
2.923194497516239942e-01
2.858234619793657005e-01
2.858234619793657005e-01
2.858234619793657005e-01
2.663354986625907639e-01
2.663354986625907639e-01
2.835307604126862668e-01
2.835307604126862668e-01
2.835307604126862668e-01
2.816201757737867850e-01
2.816201757737867850e-01
2.831486434849063705e-01
2.831486434849063705e-01
2.831486434849063705e-01
2.583110431792128292e-01
2.583110431792128292e-01
2.781811234237676622e-01
2.781811234237676622e-01
2.781811234237676622e-01
2.548719908291937064e-01
2.548719908291937064e-01
2.537256400458540173e-01
2.537256400458540173e-01
2.537256400458540173e-01
2.705387848681696794e-01
2.705387848681696794e-01
2.487581199847153091e-01
2.487581199847153091e-01
2.487581199847153091e-01
2.644249140236912266e-01
2.644249140236912266e-01
2.701566679403897830e-01
2.701566679403897830e-01
2.701566679403897830e-01
2.678639663737103493e-01
2.678639663737103493e-01
2.648070309514711229e-01
2.648070309514711229e-01
2.648070309514711229e-01
2.598395108903324147e-01
2.598395108903324147e-01
2.529614061902942246e-01
2.529614061902942246e-01
2.529614061902942246e-01
2.625143293847917447e-01
2.625143293847917447e-01
2.514329384791746391e-01
2.514329384791746391e-01
2.514329384791746391e-01
2.384409629346579962e-01
2.384409629346579962e-01
2.441727168513565249e-01
2.441727168513565249e-01
2.441727168513565249e-01
2.560183416125334510e-01
2.560183416125334510e-01
2.441727168513565249e-01
2.441727168513565249e-01
2.441727168513565249e-01
2.407336645013374021e-01
2.407336645013374021e-01
2.598395108903324147e-01
2.598395108903324147e-01
2.598395108903324147e-01
2.315628582346198061e-01
2.315628582346198061e-01
2.327092090179594952e-01
2.327092090179594952e-01
2.327092090179594952e-01
2.330913259457393916e-01
2.330913259457393916e-01
2.258311043179212774e-01
2.258311043179212774e-01
2.258311043179212774e-01
2.552541077569736583e-01
2.552541077569736583e-01
2.307986243790599856e-01
2.307986243790599856e-01
2.307986243790599856e-01
2.273595720290408906e-01
2.273595720290408906e-01
2.231562858234619751e-01
2.231562858234619751e-01
2.231562858234619751e-01
2.426442491402369117e-01
2.426442491402369117e-01
2.476117692013756200e-01
2.476117692013756200e-01
2.476117692013756200e-01
2.288880397401604760e-01
2.288880397401604760e-01
2.449369507069163177e-01
2.449369507069163177e-01
2.449369507069163177e-01
2.231562858234619751e-01
2.231562858234619751e-01
2.319449751623997025e-01
2.319449751623997025e-01
2.319449751623997025e-01
2.411157814291172985e-01
2.411157814291172985e-01
2.304165074512800893e-01
2.304165074512800893e-01
2.304165074512800893e-01
2.181887657623232668e-01
2.181887657623232668e-01
2.346197936568590048e-01
2.346197936568590048e-01
2.346197936568590048e-01
2.250668704623614846e-01
2.250668704623614846e-01
2.220099350401222860e-01
2.220099350401222860e-01
2.220099350401222860e-01
2.350019105846389011e-01
2.350019105846389011e-01
2.346197936568590048e-01
2.346197936568590048e-01
2.346197936568590048e-01
2.101643102789453599e-01
2.101643102789453599e-01
2.269774551012609942e-01
2.269774551012609942e-01
2.269774551012609942e-01
2.281238058846006833e-01
2.281238058846006833e-01
2.136033626289644549e-01
2.136033626289644549e-01
2.136033626289644549e-01
2.071073748567061612e-01
2.071073748567061612e-01
2.113106610622850490e-01
2.113106610622850490e-01
2.113106610622850490e-01
2.147497134123041718e-01
2.147497134123041718e-01
2.082537256400458503e-01
2.082537256400458503e-01
2.082537256400458503e-01
2.105464272067252562e-01
2.105464272067252562e-01
2.082537256400458503e-01
2.082537256400458503e-01
2.082537256400458503e-01
2.067252579289262648e-01
2.067252579289262648e-01
2.006113870844478397e-01
2.006113870844478397e-01
2.006113870844478397e-01
2.094000764233855671e-01
2.094000764233855671e-01
2.220099350401222860e-01
2.220099350401222860e-01
2.220099350401222860e-01
2.151318303400840681e-01
2.151318303400840681e-01
2.204814673290026728e-01
2.204814673290026728e-01
2.128391287734046622e-01
2.128391287734046622e-01
2.128391287734046622e-01
2.078716087122659539e-01
2.078716087122659539e-01
1.929690485288498292e-01
1.929690485288498292e-01
1.929690485288498292e-01
2.009935040122277361e-01
2.009935040122277361e-01
2.048146732900267553e-01
2.048146732900267553e-01
2.048146732900267553e-01
2.036683225066870384e-01
2.036683225066870384e-01
2.021398547955674529e-01
2.021398547955674529e-01
2.021398547955674529e-01
1.906763469621704232e-01
1.906763469621704232e-01
1.895299961788307341e-01
1.895299961788307341e-01
1.895299961788307341e-01
2.082537256400458503e-01
2.082537256400458503e-01
2.113106610622850490e-01
2.113106610622850490e-01
2.113106610622850490e-01
2.086358425678257467e-01
2.086358425678257467e-01
1.987008024455483302e-01
1.987008024455483302e-01
1.987008024455483302e-01
1.990829193733282265e-01
1.990829193733282265e-01
2.059610240733664444e-01
2.059610240733664444e-01
2.059610240733664444e-01
1.895299961788307341e-01
1.895299961788307341e-01
2.029040886511272457e-01
2.029040886511272457e-01
2.029040886511272457e-01
1.983186855177684338e-01
1.983186855177684338e-01
1.784486052732136008e-01
1.784486052732136008e-01
1.784486052732136008e-01
1.964081008788689242e-01
1.964081008788689242e-01
1.769201375620939876e-01
1.769201375620939876e-01
1.769201375620939876e-01
1.960259839510890278e-01
1.960259839510890278e-01
2.017577378677875566e-01
2.017577378677875566e-01
2.017577378677875566e-01
2.002292701566679434e-01
2.002292701566679434e-01
2.032862055789071420e-01
2.032862055789071420e-01
2.032862055789071420e-01
2.002292701566679434e-01
2.002292701566679434e-01
2.025219717233473493e-01
2.025219717233473493e-01
2.025219717233473493e-01
1.826518914787925163e-01
1.826518914787925163e-01
1.715705005731753829e-01
1.715705005731753829e-01
1.715705005731753829e-01
1.711883836453954866e-01
1.711883836453954866e-01
1.723347344287352034e-01
1.723347344287352034e-01
1.723347344287352034e-01
1.662208635842567783e-01
1.662208635842567783e-01
1.769201375620939876e-01
1.769201375620939876e-01
1.769201375620939876e-01
1.685135651509361843e-01
1.685135651509361843e-01
1.899121131066106305e-01
1.899121131066106305e-01
1.899121131066106305e-01
1.753916698509744021e-01
1.753916698509744021e-01
1.799770729843332140e-01
1.799770729843332140e-01
1.799770729843332140e-01
1.853267099732518186e-01
1.853267099732518186e-01
1.692777990064959770e-01
1.692777990064959770e-01
1.692777990064959770e-01
1.792128391287733935e-01
1.792128391287733935e-01
1.685135651509361843e-01
1.685135651509361843e-01
1.685135651509361843e-01
1.738632021398547889e-01
1.738632021398547889e-01
1.803591899121131104e-01
1.803591899121131104e-01
1.803591899121131104e-01
1.857088269010317150e-01
1.857088269010317150e-01
1.662208635842567783e-01
1.662208635842567783e-01
1.662208635842567783e-01
1.857088269010317150e-01
1.857088269010317150e-01
1.650745128009170892e-01
1.650745128009170892e-01
1.650745128009170892e-01
1.799770729843332140e-01
1.799770729843332140e-01
1.837982422621322054e-01
1.837982422621322054e-01
1.837982422621322054e-01
1.826518914787925163e-01
1.826518914787925163e-01
1.761559037065341948e-01
1.761559037065341948e-01
1.761559037065341948e-01
1.750095529231945057e-01
1.750095529231945057e-01
1.597248758119984846e-01
1.597248758119984846e-01
1.597248758119984846e-01
1.669850974398165711e-01
1.669850974398165711e-01
1.780664883454337044e-01
1.780664883454337044e-01
1.780664883454337044e-01
1.895299961788307341e-01
1.895299961788307341e-01
1.910584638899503196e-01
1.910584638899503196e-01
1.910584638899503196e-01
1.753916698509744021e-01
1.753916698509744021e-01
1.643102789453572687e-01
1.643102789453572687e-01
1.643102789453572687e-01
1.677493312953763915e-01
1.677493312953763915e-01
1.792128391287733935e-01
1.792128391287733935e-01
1.792128391287733935e-01
1.849445930454719222e-01
1.849445930454719222e-01
1.727168513565150998e-01
1.727168513565150998e-01
1.727168513565150998e-01
1.845624761176920259e-01
1.845624761176920259e-01
1.612533435231180701e-01
1.612533435231180701e-01
1.612533435231180701e-01
1.681314482231562879e-01
1.681314482231562879e-01
1.612533435231180701e-01
1.612533435231180701e-01
1.612533435231180701e-01
1.643102789453572687e-01
1.643102789453572687e-01
1.895299961788307341e-01
1.895299961788307341e-01
1.895299961788307341e-01
1.803591899121131104e-01
1.803591899121131104e-01
1.795949560565533176e-01
1.795949560565533176e-01
1.795949560565533176e-01
1.685135651509361843e-01
1.685135651509361843e-01
1.723347344287352034e-01
1.723347344287352034e-01
1.723347344287352034e-01
1.730989682842949962e-01
1.730989682842949962e-01
1.658387466564768820e-01
1.658387466564768820e-01
1.658387466564768820e-01
1.769201375620939876e-01
1.769201375620939876e-01
1.872372946121513282e-01
1.872372946121513282e-01
1.872372946121513282e-01
1.818876576232326958e-01
1.818876576232326958e-01
1.658387466564768820e-01
1.658387466564768820e-01
1.658387466564768820e-01
1.727168513565150998e-01
1.727168513565150998e-01
1.860909438288116113e-01
1.860909438288116113e-01
1.860909438288116113e-01
1.822697745510126199e-01
1.822697745510126199e-01
1.700420328620557975e-01
1.700420328620557975e-01
1.612533435231180701e-01
1.612533435231180701e-01
1.612533435231180701e-01
1.738632021398547889e-01
1.738632021398547889e-01
1.677493312953763915e-01
1.677493312953763915e-01
1.677493312953763915e-01
1.643102789453572687e-01
1.643102789453572687e-01
1.815055406954527994e-01
1.815055406954527994e-01
1.815055406954527994e-01
1.666029805120366747e-01
1.666029805120366747e-01
1.853267099732518186e-01
1.853267099732518186e-01
1.853267099732518186e-01
1.803591899121131104e-01
1.803591899121131104e-01
1.700420328620557975e-01
1.700420328620557975e-01
1.700420328620557975e-01
1.906763469621704232e-01
1.906763469621704232e-01
1.849445930454719222e-01
1.849445930454719222e-01
1.849445930454719222e-01
1.746274359954146094e-01
1.746274359954146094e-01
1.685135651509361843e-01
1.685135651509361843e-01
1.685135651509361843e-01
1.891478792510508100e-01
1.891478792510508100e-01
1.864730607565915077e-01
1.864730607565915077e-01
1.864730607565915077e-01
1.837982422621322054e-01
1.837982422621322054e-01
1.837982422621322054e-01
1.837982422621322054e-01
1.837982422621322054e-01
1.811234237676729031e-01
1.811234237676729031e-01
1.826518914787925163e-01
1.826518914787925163e-01
1.826518914787925163e-01
1.853267099732518186e-01
1.853267099732518186e-01
1.746274359954146094e-01
1.746274359954146094e-01
1.746274359954146094e-01
1.857088269010317150e-01
1.857088269010317150e-01
1.868551776843714041e-01
1.868551776843714041e-01
1.868551776843714041e-01
1.803591899121131104e-01
1.803591899121131104e-01
1.925869316010699328e-01
1.925869316010699328e-01
1.925869316010699328e-01
1.891478792510508100e-01
1.891478792510508100e-01
1.773022544898739117e-01
1.773022544898739117e-01
1.773022544898739117e-01
1.761559037065341948e-01
1.761559037065341948e-01
1.933511654566297255e-01
1.933511654566297255e-01
1.933511654566297255e-01
1.822697745510126199e-01
1.822697745510126199e-01
1.895299961788307341e-01
1.895299961788307341e-01
1.895299961788307341e-01
1.822697745510126199e-01
1.822697745510126199e-01
1.845624761176920259e-01
1.845624761176920259e-01
1.845624761176920259e-01
1.914405808177302160e-01
1.914405808177302160e-01
1.734810852120748925e-01
1.734810852120748925e-01
1.734810852120748925e-01
1.704241497898356938e-01
1.704241497898356938e-01
1.880015284677111209e-01
1.880015284677111209e-01
1.880015284677111209e-01
1.826518914787925163e-01
1.826518914787925163e-01
1.899121131066106305e-01
1.899121131066106305e-01
1.899121131066106305e-01
1.933511654566297255e-01
1.933511654566297255e-01
1.708062667176155902e-01
1.708062667176155902e-01
1.708062667176155902e-01
1.853267099732518186e-01
1.853267099732518186e-01
1.883836453954910173e-01
1.883836453954910173e-01
1.883836453954910173e-01
1.975544516622086411e-01
1.975544516622086411e-01
2.017577378677875566e-01
2.017577378677875566e-01
2.017577378677875566e-01
2.006113870844478397e-01
2.006113870844478397e-01
1.880015284677111209e-01
1.880015284677111209e-01
1.880015284677111209e-01
1.944975162399694424e-01
1.944975162399694424e-01
1.937332823844096219e-01
1.937332823844096219e-01
1.937332823844096219e-01
2.281238058846006833e-01
2.281238058846006833e-01
2.051967902178066516e-01
2.051967902178066516e-01
2.051967902178066516e-01
2.136033626289644549e-01
2.136033626289644549e-01
2.384409629346579962e-01
2.384409629346579962e-01
2.384409629346579962e-01
2.342376767290791084e-01
2.342376767290791084e-01
2.491402369124952332e-01
2.491402369124952332e-01
2.491402369124952332e-01
2.583110431792128292e-01
2.583110431792128292e-01
2.426442491402369117e-01
2.426442491402369117e-01
2.426442491402369117e-01
2.533435231180741209e-01
2.533435231180741209e-01
2.628964463125716411e-01
2.628964463125716411e-01
2.628964463125716411e-01
2.770347726404279731e-01
2.770347726404279731e-01
2.938479174627435797e-01
2.938479174627435797e-01
2.938479174627435797e-01
2.946121513183034279e-01
2.946121513183034279e-01
2.854413450515858042e-01
2.854413450515858042e-01
2.854413450515858042e-01
2.904088651127245124e-01
2.904088651127245124e-01
2.995796713794421362e-01
2.995796713794421362e-01
2.995796713794421362e-01
3.041650745128008926e-01
3.041650745128008926e-01
3.079862437905999117e-01
3.079862437905999117e-01
3.079862437905999117e-01
3.263278563240351593e-01
3.263278563240351593e-01
3.179212839128773282e-01
3.179212839128773282e-01
3.179212839128773282e-01
3.458158196408100959e-01
3.458158196408100959e-01
3.603362628964463243e-01
3.603362628964463243e-01
3.603362628964463243e-01
3.397019487963316986e-01
3.397019487963316986e-01
3.419946503630110768e-01
3.419946503630110768e-01
3.419946503630110768e-01
3.515475735575085969e-01
3.515475735575085969e-01
3.546045089797478234e-01
3.546045089797478234e-01
3.546045089797478234e-01
3.565150936186473052e-01
3.565150936186473052e-01
3.721818876576232227e-01
3.721818876576232227e-01
3.721818876576232227e-01
3.626289644631257025e-01
3.626289644631257025e-01
3.901413832632785739e-01
3.901413832632785739e-01
3.901413832632785739e-01
3.763851738632021382e-01
3.763851738632021382e-01
3.962552541077569712e-01
3.962552541077569712e-01
3.981658387466564530e-01
3.981658387466564530e-01
3.981658387466564530e-01
3.794421092854413646e-01
3.794421092854413646e-01
3.966373710355368676e-01
3.966373710355368676e-01
3.966373710355368676e-01
4.004585403133358867e-01
4.004585403133358867e-01
3.851738632021398656e-01
3.851738632021398656e-01
3.851738632021398656e-01
3.909056171188383666e-01
3.909056171188383666e-01
3.996943064577760940e-01
3.996943064577760940e-01
3.996943064577760940e-01
4.180359189912112861e-01
4.180359189912112861e-01
4.134505158578525297e-01
4.134505158578525297e-01
4.134505158578525297e-01
4.138326327856324260e-01
4.138326327856324260e-01
4.012227741688956795e-01
4.012227741688956795e-01
4.012227741688956795e-01
4.035154757355751132e-01
4.035154757355751132e-01
4.294994268246083435e-01
4.294994268246083435e-01
4.294994268246083435e-01
4.103935804356133032e-01
4.103935804356133032e-01
4.218570882690103052e-01
4.218570882690103052e-01
4.218570882690103052e-01
4.298815437523882399e-01
4.298815437523882399e-01
4.149789835689721151e-01
4.149789835689721151e-01
4.149789835689721151e-01
4.107756973633931996e-01
4.107756973633931996e-01
4.275888421857088062e-01
4.275888421857088062e-01
4.275888421857088062e-01
4.210928544134505125e-01
4.210928544134505125e-01
4.329384791746274108e-01
4.329384791746274108e-01
4.329384791746274108e-01
4.161253343523118042e-01
4.161253343523118042e-01
4.103935804356133032e-01
4.103935804356133032e-01
4.103935804356133032e-01
4.180359189912112861e-01
4.180359189912112861e-01
4.256782575468093244e-01
4.256782575468093244e-01
4.256782575468093244e-01
4.111578142911730960e-01
4.111578142911730960e-01
4.237676729079098426e-01
4.237676729079098426e-01
4.237676729079098426e-01
4.145968666411922188e-01
4.145968666411922188e-01
4.325563622468475145e-01
4.325563622468475145e-01
4.325563622468475145e-01
4.176538020634313897e-01
4.176538020634313897e-01
4.337027130301872591e-01
4.337027130301872591e-01
4.337027130301872591e-01
4.256782575468093244e-01
4.256782575468093244e-01
4.306457776079480326e-01
4.306457776079480326e-01
4.306457776079480326e-01
4.123041650745127851e-01
4.123041650745127851e-01
4.100114635078334069e-01
4.100114635078334069e-01
4.100114635078334069e-01
4.306457776079480326e-01
4.306457776079480326e-01
4.249140236912495316e-01
4.249140236912495316e-01
4.249140236912495316e-01
4.054260603744745950e-01
4.054260603744745950e-01
4.199465036301108234e-01
4.199465036301108234e-01
4.199465036301108234e-01
4.302636606801681363e-01
4.302636606801681363e-01
4.103935804356133032e-01
4.103935804356133032e-01
4.103935804356133032e-01
4.237676729079098426e-01
4.237676729079098426e-01
4.092472296522736142e-01
4.092472296522736142e-01
4.092472296522736142e-01
4.000764233855559904e-01
4.000764233855559904e-01
4.042797095911349059e-01
4.042797095911349059e-01
4.042797095911349059e-01
4.100114635078334069e-01
4.100114635078334069e-01
4.107756973633931996e-01
4.107756973633931996e-01
4.107756973633931996e-01
4.012227741688956795e-01
4.012227741688956795e-01
4.111578142911730960e-01
4.111578142911730960e-01
4.111578142911730960e-01
4.058081773022544914e-01
4.058081773022544914e-01
3.931983186855177448e-01
3.931983186855177448e-01
3.931983186855177448e-01
3.840275124188001765e-01
3.840275124188001765e-01
4.061902942300343877e-01
4.061902942300343877e-01
4.061902942300343877e-01
3.821169277799006392e-01
3.821169277799006392e-01
3.855559801299197620e-01
3.855559801299197620e-01
3.855559801299197620e-01
3.962552541077569712e-01
3.962552541077569712e-01
3.916698509743981593e-01
3.916698509743981593e-01
3.916698509743981593e-01
3.763851738632021382e-01
3.763851738632021382e-01
3.737103553687428081e-01
3.737103553687428081e-01
3.737103553687428081e-01
3.660680168131448253e-01
3.660680168131448253e-01
3.744745892243026564e-01
3.744745892243026564e-01
3.744745892243026564e-01
3.633931983186854953e-01
3.633931983186854953e-01
3.725640045854031190e-01
3.725640045854031190e-01
3.725640045854031190e-01
3.580435613297668906e-01
3.580435613297668906e-01
3.549866259075277197e-01
3.549866259075277197e-01
3.549866259075277197e-01
3.641574321742453435e-01
3.641574321742453435e-01
3.706534199465036372e-01
3.706534199465036372e-01
3.706534199465036372e-01
3.622468475353458062e-01
3.622468475353458062e-01
3.530760412686281824e-01
3.530760412686281824e-01
3.530760412686281824e-01
3.381734810852120576e-01
3.381734810852120576e-01
3.297669086740542821e-01
3.297669086740542821e-01
3.297669086740542821e-01
3.377913641574321613e-01
3.377913641574321613e-01
3.309132594573939712e-01
3.309132594573939712e-01
3.309132594573939712e-01
3.484906381352693705e-01
3.484906381352693705e-01
3.397019487963316986e-01
3.397019487963316986e-01
3.397019487963316986e-01
3.205961024073366583e-01
3.205961024073366583e-01
3.240351547573557256e-01
3.240351547573557256e-01
3.240351547573557256e-01
3.106610622850592418e-01
3.106610622850592418e-01
3.167749331295376392e-01
3.167749331295376392e-01
3.167749331295376392e-01
3.098968284294994491e-01
3.098968284294994491e-01
3.205961024073366583e-01
3.205961024073366583e-01
3.205961024073366583e-01
3.205961024073366583e-01
3.205961024073366583e-01
3.125716469239587236e-01
3.125716469239587236e-01
2.984333205961023916e-01
2.984333205961023916e-01
2.984333205961023916e-01
2.999617883072220326e-01
2.999617883072220326e-01
3.137179977072984127e-01
3.137179977072984127e-01
3.137179977072984127e-01
2.831486434849063705e-01
2.831486434849063705e-01
2.923194497516239942e-01
2.923194497516239942e-01
2.923194497516239942e-01
2.812380588460068886e-01
2.812380588460068886e-01
2.758884218570882840e-01
2.758884218570882840e-01
2.758884218570882840e-01
2.969048528849828061e-01
2.969048528849828061e-01
2.949942682460833243e-01
2.949942682460833243e-01
2.949942682460833243e-01
2.827665265571264741e-01
2.827665265571264741e-01
2.835307604126862668e-01
2.835307604126862668e-01
2.835307604126862668e-01
2.781811234237676622e-01
2.781811234237676622e-01
2.877340466182651824e-01
2.877340466182651824e-01
2.877340466182651824e-01
2.739778372181887467e-01
2.739778372181887467e-01
2.586931601069927256e-01
2.586931601069927256e-01
2.586931601069927256e-01
2.827665265571264741e-01
2.827665265571264741e-01
2.774168895682078695e-01
2.774168895682078695e-01
2.774168895682078695e-01
2.655712648070309712e-01
2.655712648070309712e-01
2.583110431792128292e-01
2.583110431792128292e-01
2.583110431792128292e-01
2.541077569736339137e-01
2.541077569736339137e-01
2.644249140236912266e-01
2.644249140236912266e-01
2.644249140236912266e-01
2.705387848681696794e-01
2.705387848681696794e-01
2.583110431792128292e-01
2.583110431792128292e-01
2.583110431792128292e-01
2.663354986625907639e-01
2.663354986625907639e-01
2.659533817348108675e-01
2.659533817348108675e-01
2.659533817348108675e-01
2.472296522735957236e-01
2.472296522735957236e-01
2.441727168513565249e-01
2.441727168513565249e-01
2.441727168513565249e-01
2.678639663737103493e-01
2.678639663737103493e-01
2.437905999235766008e-01
2.437905999235766008e-01
2.437905999235766008e-01
2.648070309514711229e-01
2.648070309514711229e-01
2.445548337791364213e-01
2.445548337791364213e-01
2.445548337791364213e-01
2.602216278181123665e-01
2.602216278181123665e-01
2.525792892625143282e-01
2.525792892625143282e-01
2.525792892625143282e-01
2.380588460068780998e-01
2.380588460068780998e-01
2.521971723347344319e-01
2.521971723347344319e-01
2.521971723347344319e-01
2.399694306457776094e-01
2.399694306457776094e-01
2.544898739014138100e-01
2.544898739014138100e-01
2.544898739014138100e-01
2.338555598012991843e-01
2.338555598012991843e-01
2.483760030569354127e-01
2.483760030569354127e-01
2.483760030569354127e-01
2.529614061902942246e-01
2.529614061902942246e-01
2.307986243790599856e-01
2.307986243790599856e-01
2.307986243790599856e-01
2.342376767290791084e-01
2.342376767290791084e-01
2.380588460068780998e-01
2.380588460068780998e-01
2.380588460068780998e-01
2.502865876958349500e-01
2.502865876958349500e-01
2.392051967902178167e-01
2.392051967902178167e-01
2.392051967902178167e-01
2.285059228123805797e-01
2.285059228123805797e-01
2.346197936568590048e-01
2.346197936568590048e-01
2.346197936568590048e-01
2.269774551012609942e-01
2.269774551012609942e-01
2.246847535345815883e-01
2.246847535345815883e-01
2.246847535345815883e-01
2.365303782957585144e-01
2.365303782957585144e-01
2.437905999235766008e-01
2.437905999235766008e-01
2.437905999235766008e-01
2.422621322124570153e-01
2.422621322124570153e-01
2.350019105846389011e-01
2.350019105846389011e-01
2.350019105846389011e-01
2.178066488345433704e-01
2.178066488345433704e-01
2.403515475735575058e-01
2.403515475735575058e-01
2.403515475735575058e-01
2.357661444401986939e-01
2.357661444401986939e-01
2.380588460068780998e-01
2.380588460068780998e-01
2.380588460068780998e-01
2.200993504012227764e-01
2.200993504012227764e-01
2.304165074512800893e-01
2.304165074512800893e-01
2.304165074512800893e-01
2.162781811234237572e-01
2.162781811234237572e-01
2.193351165456629837e-01
2.193351165456629837e-01
2.193351165456629837e-01
2.189529996178830595e-01
2.189529996178830595e-01
2.097821933511654635e-01
2.097821933511654635e-01
2.097821933511654635e-01
2.208635842567825691e-01
2.208635842567825691e-01
2.139854795567443513e-01
2.139854795567443513e-01
2.139854795567443513e-01
2.143675964845242754e-01
2.143675964845242754e-01
2.071073748567061612e-01
2.071073748567061612e-01
2.071073748567061612e-01
2.307986243790599856e-01
2.307986243790599856e-01
2.269774551012609942e-01
2.269774551012609942e-01
2.269774551012609942e-01
2.136033626289644549e-01
2.136033626289644549e-01
2.170424149789835777e-01
2.170424149789835777e-01
2.170424149789835777e-01
2.063431410011463407e-01
2.063431410011463407e-01
2.166602980512036813e-01
2.166602980512036813e-01
2.166602980512036813e-01
2.197172334734428800e-01
2.197172334734428800e-01
2.067252579289262648e-01
2.067252579289262648e-01
2.067252579289262648e-01
2.071073748567061612e-01
2.071073748567061612e-01
1.979365685899885374e-01
1.979365685899885374e-01
1.979365685899885374e-01
2.239205196790217678e-01
2.239205196790217678e-01
2.178066488345433704e-01
2.178066488345433704e-01
2.178066488345433704e-01
2.040504394344669348e-01
2.040504394344669348e-01
1.952617500955292351e-01
1.952617500955292351e-01
2.193351165456629837e-01
2.193351165456629837e-01
2.193351165456629837e-01
1.948796331677493388e-01
1.948796331677493388e-01
1.956438670233091315e-01
1.956438670233091315e-01
1.956438670233091315e-01
1.929690485288498292e-01
1.929690485288498292e-01
1.910584638899503196e-01
1.910584638899503196e-01
1.910584638899503196e-01
2.002292701566679434e-01
2.002292701566679434e-01
2.025219717233473493e-01
2.025219717233473493e-01
2.025219717233473493e-01
2.067252579289262648e-01
2.067252579289262648e-01
1.967902178066488483e-01
1.967902178066488483e-01
1.967902178066488483e-01
2.040504394344669348e-01
2.040504394344669348e-01
1.990829193733282265e-01
1.990829193733282265e-01
1.990829193733282265e-01
2.147497134123041718e-01
2.147497134123041718e-01
1.929690485288498292e-01
1.929690485288498292e-01
1.929690485288498292e-01
2.040504394344669348e-01
2.040504394344669348e-01
1.876194115399312246e-01
1.876194115399312246e-01
1.876194115399312246e-01
2.132212457011845586e-01
2.132212457011845586e-01
2.017577378677875566e-01
2.017577378677875566e-01
2.017577378677875566e-01
1.937332823844096219e-01
1.937332823844096219e-01
1.876194115399312246e-01
1.876194115399312246e-01
1.876194115399312246e-01
2.082537256400458503e-01
2.082537256400458503e-01
2.094000764233855671e-01
2.094000764233855671e-01
2.094000764233855671e-01
2.013756209400076325e-01
2.013756209400076325e-01
2.051967902178066516e-01
2.051967902178066516e-01
2.051967902178066516e-01
1.948796331677493388e-01
1.948796331677493388e-01
1.899121131066106305e-01
1.899121131066106305e-01
1.899121131066106305e-01
1.815055406954527994e-01
1.815055406954527994e-01
1.815055406954527994e-01
1.815055406954527994e-01
1.815055406954527994e-01
1.826518914787925163e-01
1.826518914787925163e-01
1.868551776843714041e-01
1.868551776843714041e-01
1.868551776843714041e-01
2.025219717233473493e-01
2.025219717233473493e-01
1.899121131066106305e-01
1.899121131066106305e-01
1.899121131066106305e-01
1.895299961788307341e-01
1.895299961788307341e-01
2.044325563622468589e-01
2.044325563622468589e-01
2.044325563622468589e-01
1.849445930454719222e-01
1.849445930454719222e-01
2.036683225066870384e-01
2.036683225066870384e-01
2.036683225066870384e-01
1.864730607565915077e-01
1.864730607565915077e-01
1.799770729843332140e-01
1.799770729843332140e-01
1.799770729843332140e-01
1.971723347344287447e-01
1.971723347344287447e-01
2.006113870844478397e-01
2.006113870844478397e-01
2.006113870844478397e-01
2.051967902178066516e-01
2.051967902178066516e-01
2.002292701566679434e-01
2.002292701566679434e-01
2.002292701566679434e-01
2.048146732900267553e-01
2.048146732900267553e-01
2.040504394344669348e-01
2.040504394344669348e-01
2.040504394344669348e-01
2.009935040122277361e-01
2.009935040122277361e-01
1.849445930454719222e-01
1.849445930454719222e-01
1.849445930454719222e-01
1.922048146732900364e-01
1.922048146732900364e-01
2.021398547955674529e-01
2.021398547955674529e-01
2.021398547955674529e-01
1.990829193733282265e-01
1.990829193733282265e-01
1.891478792510508100e-01
1.891478792510508100e-01
1.891478792510508100e-01
1.880015284677111209e-01
1.880015284677111209e-01
1.971723347344287447e-01
1.971723347344287447e-01
1.971723347344287447e-01
2.013756209400076325e-01
2.013756209400076325e-01
1.795949560565533176e-01
1.795949560565533176e-01
1.795949560565533176e-01
1.769201375620939876e-01
1.769201375620939876e-01
1.960259839510890278e-01
1.960259839510890278e-01
1.960259839510890278e-01
1.841803591899121018e-01
1.841803591899121018e-01
1.857088269010317150e-01
1.857088269010317150e-01
1.857088269010317150e-01
1.761559037065341948e-01
1.761559037065341948e-01
1.723347344287352034e-01
1.723347344287352034e-01
1.723347344287352034e-01
1.872372946121513282e-01
1.872372946121513282e-01
1.918226977455101123e-01
1.918226977455101123e-01
1.918226977455101123e-01
1.822697745510126199e-01
1.822697745510126199e-01
1.700420328620557975e-01
1.700420328620557975e-01
1.700420328620557975e-01
1.811234237676729031e-01
1.811234237676729031e-01
1.803591899121131104e-01
1.803591899121131104e-01
1.803591899121131104e-01
1.998471532288880470e-01
1.998471532288880470e-01
1.948796331677493388e-01
1.948796331677493388e-01
1.948796331677493388e-01
1.864730607565915077e-01
1.864730607565915077e-01
1.914405808177302160e-01
1.914405808177302160e-01
1.914405808177302160e-01
1.876194115399312246e-01
1.876194115399312246e-01
1.956438670233091315e-01
1.956438670233091315e-01
1.956438670233091315e-01
1.795949560565533176e-01
1.795949560565533176e-01
1.719526175009552793e-01
1.719526175009552793e-01
1.719526175009552793e-01
1.750095529231945057e-01
1.750095529231945057e-01
1.650745128009170892e-01
1.650745128009170892e-01
1.650745128009170892e-01
1.654566297286969856e-01
1.654566297286969856e-01
1.822697745510126199e-01
1.822697745510126199e-01
1.822697745510126199e-01
1.864730607565915077e-01
1.864730607565915077e-01
1.704241497898356938e-01
1.704241497898356938e-01
1.704241497898356938e-01
1.685135651509361843e-01
1.685135651509361843e-01
1.708062667176155902e-01
1.708062667176155902e-01
1.681314482231562879e-01
1.681314482231562879e-01
1.681314482231562879e-01
1.853267099732518186e-01
1.853267099732518186e-01
1.708062667176155902e-01
1.708062667176155902e-01
1.708062667176155902e-01
1.914405808177302160e-01
1.914405808177302160e-01
1.788307222009934971e-01
1.788307222009934971e-01
1.788307222009934971e-01
1.780664883454337044e-01
1.780664883454337044e-01
1.639281620175773724e-01
1.639281620175773724e-01
1.639281620175773724e-01
1.929690485288498292e-01
1.929690485288498292e-01
1.704241497898356938e-01
1.704241497898356938e-01
1.704241497898356938e-01
1.723347344287352034e-01
1.723347344287352034e-01
1.841803591899121018e-01
1.841803591899121018e-01
1.841803591899121018e-01
1.906763469621704232e-01
1.906763469621704232e-01
1.738632021398547889e-01
1.738632021398547889e-01
1.738632021398547889e-01
1.730989682842949962e-01
1.730989682842949962e-01
1.845624761176920259e-01
1.845624761176920259e-01
1.845624761176920259e-01
1.761559037065341948e-01
1.761559037065341948e-01
1.734810852120748925e-01
1.734810852120748925e-01
1.734810852120748925e-01
1.765380206343140912e-01
1.765380206343140912e-01
1.937332823844096219e-01
1.937332823844096219e-01
1.937332823844096219e-01
1.826518914787925163e-01
1.826518914787925163e-01
1.876194115399312246e-01
1.876194115399312246e-01
1.876194115399312246e-01
1.891478792510508100e-01
1.891478792510508100e-01
1.876194115399312246e-01
1.876194115399312246e-01
1.876194115399312246e-01
1.845624761176920259e-01
1.845624761176920259e-01
1.891478792510508100e-01
1.891478792510508100e-01
1.891478792510508100e-01
2.162781811234237572e-01
2.162781811234237572e-01
