2.399694306457776094e-01
2.399694306457776094e-01
2.399694306457776094e-01
2.495223538402751295e-01
2.495223538402751295e-01
2.399694306457776094e-01
2.399694306457776094e-01
2.399694306457776094e-01
2.330913259457393916e-01
2.330913259457393916e-01
2.430263660680168081e-01
2.430263660680168081e-01
2.430263660680168081e-01
2.346197936568590048e-01
2.346197936568590048e-01
2.315628582346198061e-01
2.315628582346198061e-01
2.315628582346198061e-01
2.350019105846389011e-01
2.350019105846389011e-01
2.307986243790599856e-01
2.307986243790599856e-01
2.307986243790599856e-01
2.269774551012609942e-01
2.269774551012609942e-01
2.277416889568207869e-01
2.277416889568207869e-01
2.277416889568207869e-01
2.227741688956820787e-01
2.227741688956820787e-01
2.372946121513183071e-01
2.372946121513183071e-01
2.372946121513183071e-01
2.296522735957202965e-01
2.296522735957202965e-01
2.181887657623232668e-01
2.181887657623232668e-01
2.181887657623232668e-01
2.216278181123423896e-01
2.216278181123423896e-01
2.246847535345815883e-01
2.246847535345815883e-01
2.246847535345815883e-01
2.113106610622850490e-01
2.113106610622850490e-01
2.235384027512418714e-01
2.235384027512418714e-01
2.235384027512418714e-01
2.220099350401222860e-01
2.220099350401222860e-01
2.158960641956438609e-01
2.158960641956438609e-01
2.090179594956056430e-01
2.090179594956056430e-01
2.090179594956056430e-01
2.132212457011845586e-01
2.132212457011845586e-01
2.143675964845242754e-01
2.143675964845242754e-01
2.143675964845242754e-01
2.197172334734428800e-01
2.197172334734428800e-01
2.082537256400458503e-01
2.082537256400458503e-01
2.082537256400458503e-01
2.101643102789453599e-01
2.101643102789453599e-01
2.040504394344669348e-01
2.040504394344669348e-01
2.040504394344669348e-01
2.166602980512036813e-01
2.166602980512036813e-01
2.090179594956056430e-01
2.090179594956056430e-01
2.090179594956056430e-01
1.994650363011081506e-01
1.994650363011081506e-01
1.987008024455483302e-01
1.987008024455483302e-01
1.987008024455483302e-01
2.143675964845242754e-01
2.143675964845242754e-01
2.078716087122659539e-01
2.078716087122659539e-01
2.078716087122659539e-01
2.009935040122277361e-01
2.009935040122277361e-01
1.979365685899885374e-01
1.979365685899885374e-01
1.979365685899885374e-01
1.948796331677493388e-01
1.948796331677493388e-01
2.074894917844860576e-01
2.074894917844860576e-01
2.074894917844860576e-01
2.048146732900267553e-01
2.048146732900267553e-01
2.116927779900649731e-01
2.116927779900649731e-01
2.116927779900649731e-01
2.067252579289262648e-01
2.067252579289262648e-01
1.868551776843714041e-01
1.868551776843714041e-01
1.868551776843714041e-01
1.925869316010699328e-01
1.925869316010699328e-01
1.895299961788307341e-01
1.895299961788307341e-01
1.895299961788307341e-01
2.025219717233473493e-01
2.025219717233473493e-01
2.051967902178066516e-01
2.051967902178066516e-01
2.051967902178066516e-01
1.910584638899503196e-01
1.910584638899503196e-01
1.975544516622086411e-01
1.975544516622086411e-01
1.975544516622086411e-01
1.887657623232709136e-01
1.887657623232709136e-01
1.872372946121513282e-01
1.872372946121513282e-01
1.872372946121513282e-01
1.818876576232326958e-01
1.818876576232326958e-01
1.933511654566297255e-01
1.933511654566297255e-01
1.933511654566297255e-01
1.857088269010317150e-01
1.857088269010317150e-01
1.795949560565533176e-01
1.795949560565533176e-01
1.795949560565533176e-01
1.837982422621322054e-01
1.837982422621322054e-01
1.788307222009934971e-01
1.788307222009934971e-01
1.788307222009934971e-01
1.822697745510126199e-01
1.822697745510126199e-01
1.853267099732518186e-01
1.853267099732518186e-01
1.853267099732518186e-01
1.845624761176920259e-01
1.845624761176920259e-01
1.753916698509744021e-01
1.753916698509744021e-01
1.753916698509744021e-01
1.776843714176538080e-01
1.776843714176538080e-01
1.872372946121513282e-01
1.872372946121513282e-01
1.872372946121513282e-01
1.872372946121513282e-01
1.872372946121513282e-01
1.730989682842949962e-01
1.730989682842949962e-01
1.730989682842949962e-01
1.765380206343140912e-01
1.765380206343140912e-01
1.776843714176538080e-01
1.776843714176538080e-01
1.776843714176538080e-01
1.799770729843332140e-01
1.799770729843332140e-01
1.666029805120366747e-01
1.666029805120366747e-01
1.666029805120366747e-01
1.746274359954146094e-01
1.746274359954146094e-01
1.776843714176538080e-01
1.776843714176538080e-01
1.776843714176538080e-01
1.788307222009934971e-01
1.788307222009934971e-01
1.692777990064959770e-01
1.692777990064959770e-01
1.692777990064959770e-01
1.799770729843332140e-01
1.799770729843332140e-01
1.723347344287352034e-01
1.723347344287352034e-01
1.723347344287352034e-01
1.673672143675964952e-01
1.673672143675964952e-01
1.826518914787925163e-01
1.826518914787925163e-01
1.826518914787925163e-01
1.627818112342376833e-01
1.627818112342376833e-01
1.669850974398165711e-01
1.669850974398165711e-01
1.669850974398165711e-01
1.792128391287733935e-01
1.792128391287733935e-01
1.666029805120366747e-01
1.666029805120366747e-01
1.666029805120366747e-01
1.719526175009552793e-01
1.719526175009552793e-01
1.616354604508979664e-01
1.616354604508979664e-01
1.616354604508979664e-01
1.623996943064577869e-01
1.623996943064577869e-01
1.792128391287733935e-01
1.792128391287733935e-01
1.792128391287733935e-01
1.715705005731753829e-01
1.715705005731753829e-01
1.799770729843332140e-01
1.799770729843332140e-01
1.799770729843332140e-01
1.780664883454337044e-01
1.780664883454337044e-01
1.639281620175773724e-01
1.639281620175773724e-01
1.639281620175773724e-01
1.730989682842949962e-01
1.730989682842949962e-01
1.650745128009170892e-01
1.650745128009170892e-01
1.650745128009170892e-01
1.643102789453572687e-01
1.643102789453572687e-01
1.685135651509361843e-01
1.685135651509361843e-01
1.685135651509361843e-01
1.715705005731753829e-01
1.715705005731753829e-01
1.765380206343140912e-01
1.765380206343140912e-01
1.765380206343140912e-01
1.639281620175773724e-01
1.639281620175773724e-01
1.597248758119984846e-01
1.597248758119984846e-01
1.597248758119984846e-01
1.723347344287352034e-01
1.723347344287352034e-01
1.773022544898739117e-01
1.773022544898739117e-01
1.773022544898739117e-01
1.738632021398547889e-01
1.738632021398547889e-01
1.616354604508979664e-01
1.616354604508979664e-01
1.616354604508979664e-01
1.727168513565150998e-01
1.727168513565150998e-01
1.730989682842949962e-01
1.730989682842949962e-01
1.696599159342759011e-01
1.696599159342759011e-01
1.696599159342759011e-01
1.517004203286205499e-01
1.517004203286205499e-01
1.597248758119984846e-01
1.597248758119984846e-01
1.597248758119984846e-01
1.627818112342376833e-01
1.627818112342376833e-01
1.581964081008788714e-01
1.581964081008788714e-01
1.581964081008788714e-01
1.669850974398165711e-01
1.669850974398165711e-01
1.669850974398165711e-01
1.669850974398165711e-01
1.669850974398165711e-01
1.570500573175391545e-01
1.570500573175391545e-01
1.601069927397783810e-01
1.601069927397783810e-01
1.601069927397783810e-01
1.635460450897974760e-01
1.635460450897974760e-01
1.623996943064577869e-01
1.623996943064577869e-01
1.623996943064577869e-01
1.574321742453190787e-01
1.574321742453190787e-01
1.654566297286969856e-01
1.654566297286969856e-01
1.654566297286969856e-01
1.616354604508979664e-01
1.616354604508979664e-01
1.696599159342759011e-01
1.696599159342759011e-01
1.696599159342759011e-01
1.654566297286969856e-01
1.654566297286969856e-01
1.581964081008788714e-01
1.581964081008788714e-01
1.581964081008788714e-01
1.528467711119602668e-01
1.528467711119602668e-01
1.528467711119602668e-01
1.528467711119602668e-01
1.528467711119602668e-01
1.578142911730989750e-01
1.578142911730989750e-01
1.543752388230798522e-01
1.543752388230798522e-01
1.543752388230798522e-01
1.559037065341994654e-01
1.559037065341994654e-01
1.543752388230798522e-01
1.543752388230798522e-01
1.543752388230798522e-01
1.589606419564386641e-01
1.589606419564386641e-01
1.639281620175773724e-01
1.639281620175773724e-01
1.639281620175773724e-01
1.528467711119602668e-01
1.528467711119602668e-01
1.616354604508979664e-01
1.616354604508979664e-01
1.616354604508979664e-01
1.711883836453954866e-01
1.711883836453954866e-01
1.528467711119602668e-01
1.528467711119602668e-01
1.528467711119602668e-01
1.517004203286205499e-01
1.517004203286205499e-01
1.669850974398165711e-01
1.669850974398165711e-01
1.669850974398165711e-01
1.597248758119984846e-01
1.597248758119984846e-01
1.612533435231180701e-01
1.612533435231180701e-01
1.612533435231180701e-01
1.581964081008788714e-01
1.581964081008788714e-01
1.723347344287352034e-01
1.723347344287352034e-01
1.723347344287352034e-01
1.566679403897592582e-01
1.566679403897592582e-01
1.555215896064195691e-01
1.555215896064195691e-01
1.555215896064195691e-01
1.666029805120366747e-01
1.666029805120366747e-01
1.509361864730607572e-01
1.509361864730607572e-01
1.509361864730607572e-01
1.562858234619793618e-01
1.562858234619793618e-01
1.547573557508597764e-01
1.547573557508597764e-01
1.547573557508597764e-01
1.513183034008406536e-01
1.513183034008406536e-01
1.566679403897592582e-01
1.566679403897592582e-01
1.566679403897592582e-01
1.623996943064577869e-01
1.623996943064577869e-01
1.623996943064577869e-01
1.623996943064577869e-01
1.623996943064577869e-01
1.700420328620557975e-01
1.700420328620557975e-01
1.543752388230798522e-01
1.543752388230798522e-01
1.543752388230798522e-01
1.543752388230798522e-01
1.543752388230798522e-01
1.612533435231180701e-01
1.612533435231180701e-01
1.612533435231180701e-01
1.463507833397019453e-01
1.463507833397019453e-01
1.520825372564004463e-01
1.520825372564004463e-01
1.520825372564004463e-01
1.654566297286969856e-01
1.654566297286969856e-01
1.497898356897210681e-01
1.497898356897210681e-01
1.497898356897210681e-01
1.509361864730607572e-01
1.509361864730607572e-01
1.643102789453572687e-01
1.643102789453572687e-01
1.643102789453572687e-01
1.627818112342376833e-01
1.627818112342376833e-01
1.524646541841803704e-01
1.524646541841803704e-01
1.524646541841803704e-01
1.604891096675582773e-01
1.604891096675582773e-01
1.528467711119602668e-01
1.528467711119602668e-01
1.528467711119602668e-01
1.608712265953381737e-01
1.608712265953381737e-01
1.532288880397401631e-01
1.532288880397401631e-01
1.532288880397401631e-01
1.627818112342376833e-01
1.627818112342376833e-01
1.562858234619793618e-01
1.562858234619793618e-01
1.562858234619793618e-01
1.673672143675964952e-01
1.673672143675964952e-01
1.543752388230798522e-01
1.543752388230798522e-01
1.543752388230798522e-01
1.662208635842567783e-01
1.662208635842567783e-01
1.662208635842567783e-01
1.662208635842567783e-01
1.662208635842567783e-01
1.578142911730989750e-01
1.578142911730989750e-01
1.566679403897592582e-01
1.566679403897592582e-01
1.566679403897592582e-01
1.620175773786778628e-01
1.620175773786778628e-01
1.566679403897592582e-01
1.566679403897592582e-01
1.566679403897592582e-01
1.669850974398165711e-01
1.669850974398165711e-01
1.666029805120366747e-01
1.666029805120366747e-01
1.666029805120366747e-01
1.704241497898356938e-01
1.704241497898356938e-01
1.692777990064959770e-01
1.692777990064959770e-01
1.692777990064959770e-01
1.792128391287733935e-01
1.792128391287733935e-01
1.849445930454719222e-01
1.849445930454719222e-01
1.849445930454719222e-01
1.872372946121513282e-01
1.872372946121513282e-01
1.887657623232709136e-01
1.887657623232709136e-01
1.887657623232709136e-01
2.082537256400458503e-01
2.082537256400458503e-01
1.998471532288880470e-01
1.998471532288880470e-01
1.998471532288880470e-01
1.979365685899885374e-01
1.979365685899885374e-01
2.151318303400840681e-01
2.151318303400840681e-01
2.227741688956820787e-01
2.227741688956820787e-01
2.227741688956820787e-01
2.319449751623997025e-01
2.319449751623997025e-01
2.235384027512418714e-01
2.235384027512418714e-01
2.235384027512418714e-01
2.319449751623997025e-01
2.319449751623997025e-01
2.361482613679785902e-01
2.361482613679785902e-01
2.361482613679785902e-01
2.483760030569354127e-01
2.483760030569354127e-01
2.476117692013756200e-01
2.476117692013756200e-01
2.476117692013756200e-01
2.628964463125716411e-01
2.628964463125716411e-01
2.732136033626289540e-01
2.732136033626289540e-01
2.732136033626289540e-01
2.705387848681696794e-01
2.705387848681696794e-01
2.755063049293083877e-01
2.755063049293083877e-01
2.755063049293083877e-01
2.770347726404279731e-01
2.770347726404279731e-01
2.881161635460450787e-01
2.881161635460450787e-01
2.881161635460450787e-01
2.858234619793657005e-01
2.858234619793657005e-01
2.988154375238822880e-01
2.988154375238822880e-01
2.988154375238822880e-01
3.076041268628200154e-01
3.076041268628200154e-01
3.106610622850592418e-01
3.106610622850592418e-01
3.106610622850592418e-01
3.217424531906763474e-01
3.217424531906763474e-01
3.225066870462361401e-01
3.225066870462361401e-01
3.225066870462361401e-01
3.347344287351929903e-01
3.347344287351929903e-01
3.332059610240733494e-01
3.332059610240733494e-01
3.332059610240733494e-01
3.442873519296905105e-01
3.442873519296905105e-01
3.435231180741306622e-01
3.435231180741306622e-01
3.435231180741306622e-01
3.534581581964080788e-01
3.534581581964080788e-01
3.488727550630492669e-01
3.488727550630492669e-01
3.488727550630492669e-01
3.580435613297668906e-01
3.580435613297668906e-01
3.511654566297287006e-01
3.511654566297287006e-01
3.511654566297287006e-01
3.504012227741689078e-01
3.504012227741689078e-01
3.607183798242262207e-01
3.607183798242262207e-01
3.607183798242262207e-01
3.675964845242644108e-01
3.675964845242644108e-01
3.656858998853649290e-01
3.656858998853649290e-01
3.656858998853649290e-01
3.775315246465418273e-01
3.775315246465418273e-01
3.656858998853649290e-01
3.656858998853649290e-01
3.656858998853649290e-01
3.821169277799006392e-01
3.821169277799006392e-01
3.756209400076423455e-01
3.756209400076423455e-01
3.756209400076423455e-01
3.828811616354604319e-01
3.828811616354604319e-01
3.775315246465418273e-01
3.775315246465418273e-01
3.775315246465418273e-01
3.782957585021016200e-01
3.782957585021016200e-01
3.912877340466182630e-01
3.912877340466182630e-01
3.912877340466182630e-01
3.844096293465800729e-01
3.844096293465800729e-01
3.981658387466564530e-01
3.981658387466564530e-01
3.981658387466564530e-01
3.886129155521589329e-01
3.886129155521589329e-01
3.878486816965991402e-01
3.878486816965991402e-01
3.878486816965991402e-01
3.893771494077187811e-01
3.893771494077187811e-01
4.027512418800152649e-01
4.027512418800152649e-01
4.027512418800152649e-01
3.912877340466182630e-01
3.912877340466182630e-01
3.985479556744364049e-01
3.985479556744364049e-01
3.985479556744364049e-01
4.008406572411157831e-01
4.008406572411157831e-01
4.077187619411539732e-01
4.077187619411539732e-01
4.077187619411539732e-01
4.004585403133358867e-01
4.004585403133358867e-01
3.931983186855177448e-01
3.931983186855177448e-01
3.931983186855177448e-01
3.867023309132594511e-01
3.867023309132594511e-01
3.954910202521971785e-01
3.954910202521971785e-01
3.954910202521971785e-01
4.073366450133740768e-01
4.073366450133740768e-01
3.989300726022163013e-01
3.989300726022163013e-01
3.989300726022163013e-01
3.981658387466564530e-01
3.981658387466564530e-01
3.939625525410775930e-01
3.939625525410775930e-01
3.939625525410775930e-01
3.962552541077569712e-01
3.962552541077569712e-01
4.096293465800535105e-01
4.096293465800535105e-01
4.096293465800535105e-01
3.989300726022163013e-01
3.989300726022163013e-01
3.958731371799770749e-01
3.958731371799770749e-01
3.958731371799770749e-01
3.924340848299579521e-01
3.924340848299579521e-01
4.012227741688956795e-01
4.012227741688956795e-01
4.012227741688956795e-01
4.023691249522353686e-01
4.023691249522353686e-01
4.004585403133358867e-01
4.004585403133358867e-01
4.004585403133358867e-01
4.019870080244554722e-01
4.019870080244554722e-01
3.993121895299961976e-01
3.993121895299961976e-01
3.993121895299961976e-01
4.023691249522353686e-01
4.023691249522353686e-01
4.027512418800152649e-01
4.027512418800152649e-01
4.027512418800152649e-01
3.985479556744364049e-01
3.985479556744364049e-01
3.985479556744364049e-01
3.985479556744364049e-01
3.985479556744364049e-01
3.977837218188765567e-01
3.977837218188765567e-01
4.023691249522353686e-01
4.023691249522353686e-01
4.023691249522353686e-01
3.912877340466182630e-01
3.912877340466182630e-01
3.954910202521971785e-01
3.954910202521971785e-01
3.954910202521971785e-01
3.951089033244172821e-01
3.951089033244172821e-01
3.943446694688574894e-01
3.943446694688574894e-01
3.943446694688574894e-01
3.962552541077569712e-01
3.962552541077569712e-01
3.855559801299197620e-01
3.855559801299197620e-01
3.855559801299197620e-01
3.931983186855177448e-01
3.931983186855177448e-01
3.947267863966373858e-01
3.947267863966373858e-01
3.821169277799006392e-01
3.821169277799006392e-01
3.821169277799006392e-01
3.828811616354604319e-01
3.828811616354604319e-01
3.790599923576614683e-01
3.790599923576614683e-01
3.790599923576614683e-01
3.790599923576614683e-01
3.790599923576614683e-01
3.855559801299197620e-01
3.855559801299197620e-01
3.855559801299197620e-01
3.836453954910202246e-01
3.836453954910202246e-01
3.809705769965609501e-01
3.809705769965609501e-01
3.809705769965609501e-01
3.802063431410011574e-01
3.802063431410011574e-01
3.802063431410011574e-01
3.802063431410011574e-01
3.802063431410011574e-01
3.679786014520443072e-01
3.679786014520443072e-01
3.622468475353458062e-01
3.622468475353458062e-01
3.622468475353458062e-01
3.683607183798242035e-01
3.683607183798242035e-01
3.637753152464653916e-01
3.637753152464653916e-01
3.637753152464653916e-01
3.706534199465036372e-01
3.706534199465036372e-01
3.664501337409247217e-01
3.664501337409247217e-01
3.664501337409247217e-01
3.641574321742453435e-01
3.641574321742453435e-01
3.599541459686664280e-01
3.599541459686664280e-01
3.599541459686664280e-01
3.649216660298051362e-01
3.649216660298051362e-01
3.549866259075277197e-01
3.549866259075277197e-01
3.549866259075277197e-01
3.538402751241879751e-01
3.538402751241879751e-01
3.446694688574704069e-01
3.446694688574704069e-01
3.446694688574704069e-01
3.488727550630492669e-01
3.488727550630492669e-01
3.404661826518914913e-01
3.404661826518914913e-01
3.404661826518914913e-01
3.377913641574321613e-01
3.377913641574321613e-01
3.404661826518914913e-01
3.404661826518914913e-01
3.404661826518914913e-01
3.278563240351547448e-01
3.278563240351547448e-01
3.225066870462361401e-01
3.225066870462361401e-01
3.225066870462361401e-01
3.198318685517768656e-01
3.198318685517768656e-01
3.183034008406572246e-01
3.183034008406572246e-01
3.183034008406572246e-01
3.240351547573557256e-01
3.240351547573557256e-01
3.205961024073366583e-01
3.205961024073366583e-01
3.205961024073366583e-01
3.225066870462361401e-01
3.225066870462361401e-01
3.053114252961406372e-01
3.053114252961406372e-01
3.053114252961406372e-01
3.064577760794803263e-01
3.064577760794803263e-01
2.980512036683224952e-01
2.980512036683224952e-01
2.980512036683224952e-01
2.953763851738632207e-01
2.953763851738632207e-01
2.961406190294230134e-01
2.961406190294230134e-01
2.961406190294230134e-01
2.957585021016431170e-01
2.957585021016431170e-01
2.865876958349254933e-01
2.865876958349254933e-01
2.865876958349254933e-01
2.881161635460450787e-01
2.881161635460450787e-01
2.884982804738249751e-01
2.884982804738249751e-01
2.884982804738249751e-01
2.797095911348873032e-01
2.797095911348873032e-01
2.854413450515858042e-01
2.854413450515858042e-01
2.854413450515858042e-01
2.896446312571647197e-01
2.896446312571647197e-01
2.854413450515858042e-01
2.854413450515858042e-01
2.854413450515858042e-01
2.720672525792892649e-01
2.720672525792892649e-01
2.850592281238059078e-01
2.850592281238059078e-01
2.850592281238059078e-01
2.770347726404279731e-01
2.770347726404279731e-01
2.781811234237676622e-01
2.781811234237676622e-01
2.781811234237676622e-01
2.678639663737103493e-01
2.678639663737103493e-01
2.789453572793274549e-01
2.789453572793274549e-01
2.789453572793274549e-01
2.797095911348873032e-01
2.797095911348873032e-01
2.690103171570500384e-01
2.690103171570500384e-01
2.690103171570500384e-01
2.678639663737103493e-01
2.678639663737103493e-01
2.670997325181505566e-01
2.670997325181505566e-01
2.670997325181505566e-01
2.697745510126098312e-01
2.697745510126098312e-01
2.670997325181505566e-01
2.670997325181505566e-01
2.670997325181505566e-01
2.720672525792892649e-01
2.720672525792892649e-01
2.621322124570118484e-01
2.621322124570118484e-01
2.621322124570118484e-01
2.567825754680932437e-01
2.567825754680932437e-01
2.552541077569736583e-01
2.552541077569736583e-01
2.552541077569736583e-01
2.602216278181123665e-01
2.602216278181123665e-01
2.606037447458922629e-01
2.606037447458922629e-01
2.606037447458922629e-01
2.640427970959113302e-01
2.640427970959113302e-01
2.521971723347344319e-01
2.521971723347344319e-01
2.521971723347344319e-01
2.510508215513947428e-01
2.510508215513947428e-01
2.648070309514711229e-01
2.648070309514711229e-01
2.648070309514711229e-01
2.479938861291555163e-01
2.479938861291555163e-01
2.506687046236148464e-01
2.506687046236148464e-01
2.506687046236148464e-01
2.479938861291555163e-01
2.479938861291555163e-01
2.445548337791364213e-01
2.445548337791364213e-01
2.445548337791364213e-01
2.449369507069163177e-01
2.449369507069163177e-01
2.491402369124952332e-01
2.491402369124952332e-01
2.491402369124952332e-01
2.510508215513947428e-01
2.510508215513947428e-01
2.457011845624761104e-01
2.457011845624761104e-01
2.457011845624761104e-01
2.441727168513565249e-01
2.441727168513565249e-01
2.521971723347344319e-01
2.521971723347344319e-01
2.521971723347344319e-01
2.369124952235384107e-01
2.369124952235384107e-01
2.357661444401986939e-01
2.357661444401986939e-01
2.357661444401986939e-01
2.327092090179594952e-01
2.327092090179594952e-01
2.403515475735575058e-01
2.403515475735575058e-01
2.453190676346962140e-01
2.453190676346962140e-01
2.453190676346962140e-01
2.407336645013374021e-01
2.407336645013374021e-01
2.357661444401986939e-01
2.357661444401986939e-01
2.357661444401986939e-01
2.384409629346579962e-01
2.384409629346579962e-01
2.357661444401986939e-01
2.357661444401986939e-01
2.357661444401986939e-01
2.338555598012991843e-01
2.338555598012991843e-01
2.330913259457393916e-01
2.330913259457393916e-01
2.330913259457393916e-01
2.281238058846006833e-01
2.281238058846006833e-01
2.300343905235001929e-01
2.300343905235001929e-01
2.300343905235001929e-01
2.361482613679785902e-01
2.361482613679785902e-01
2.269774551012609942e-01
2.269774551012609942e-01
2.269774551012609942e-01
2.246847535345815883e-01
2.246847535345815883e-01
2.193351165456629837e-01
2.193351165456629837e-01
2.193351165456629837e-01
2.262132212457011737e-01
2.262132212457011737e-01
2.281238058846006833e-01
2.281238058846006833e-01
2.281238058846006833e-01
2.227741688956820787e-01
2.227741688956820787e-01
2.281238058846006833e-01
2.281238058846006833e-01
2.281238058846006833e-01
2.158960641956438609e-01
2.158960641956438609e-01
2.158960641956438609e-01
2.158960641956438609e-01
2.158960641956438609e-01
2.262132212457011737e-01
2.262132212457011737e-01
2.258311043179212774e-01
2.258311043179212774e-01
2.258311043179212774e-01
2.277416889568207869e-01
2.277416889568207869e-01
2.120748949178448695e-01
2.120748949178448695e-01
2.120748949178448695e-01
2.216278181123423896e-01
2.216278181123423896e-01
2.158960641956438609e-01
2.158960641956438609e-01
2.158960641956438609e-01
2.116927779900649731e-01
2.116927779900649731e-01
2.189529996178830595e-01
2.189529996178830595e-01
2.189529996178830595e-01
2.040504394344669348e-01
2.040504394344669348e-01
2.162781811234237572e-01
2.162781811234237572e-01
2.162781811234237572e-01
2.200993504012227764e-01
2.200993504012227764e-01
2.139854795567443513e-01
2.139854795567443513e-01
2.139854795567443513e-01
2.174245319067634741e-01
2.174245319067634741e-01
1.987008024455483302e-01
1.987008024455483302e-01
1.987008024455483302e-01
2.124570118456247658e-01
2.124570118456247658e-01
1.987008024455483302e-01
1.987008024455483302e-01
1.987008024455483302e-01
2.025219717233473493e-01
2.025219717233473493e-01
1.979365685899885374e-01
1.979365685899885374e-01
1.979365685899885374e-01
2.036683225066870384e-01
2.036683225066870384e-01
2.017577378677875566e-01
2.017577378677875566e-01
2.017577378677875566e-01
1.987008024455483302e-01
1.987008024455483302e-01
1.891478792510508100e-01
1.891478792510508100e-01
1.891478792510508100e-01
2.048146732900267553e-01
2.048146732900267553e-01
1.891478792510508100e-01
1.891478792510508100e-01
1.891478792510508100e-01
1.983186855177684338e-01
1.983186855177684338e-01
1.868551776843714041e-01
1.868551776843714041e-01
1.868551776843714041e-01
1.941153993121895183e-01
1.941153993121895183e-01
1.872372946121513282e-01
1.872372946121513282e-01
1.872372946121513282e-01
1.941153993121895183e-01
1.941153993121895183e-01
1.914405808177302160e-01
1.914405808177302160e-01
1.914405808177302160e-01
1.834161253343523090e-01
1.834161253343523090e-01
2.009935040122277361e-01
2.009935040122277361e-01
2.009935040122277361e-01
1.815055406954527994e-01
1.815055406954527994e-01
1.822697745510126199e-01
1.822697745510126199e-01
1.822697745510126199e-01
1.830340084065724127e-01
1.830340084065724127e-01
1.941153993121895183e-01
1.941153993121895183e-01
1.941153993121895183e-01
1.822697745510126199e-01
1.822697745510126199e-01
1.711883836453954866e-01
1.711883836453954866e-01
1.711883836453954866e-01
1.803591899121131104e-01
1.803591899121131104e-01
1.799770729843332140e-01
1.799770729843332140e-01
1.799770729843332140e-01
1.822697745510126199e-01
1.822697745510126199e-01
1.730989682842949962e-01
1.730989682842949962e-01
1.730989682842949962e-01
1.792128391287733935e-01
1.792128391287733935e-01
1.899121131066106305e-01
1.899121131066106305e-01
1.899121131066106305e-01
1.727168513565150998e-01
1.727168513565150998e-01
1.723347344287352034e-01
1.723347344287352034e-01
1.723347344287352034e-01
1.708062667176155902e-01
1.708062667176155902e-01
1.711883836453954866e-01
1.711883836453954866e-01
1.711883836453954866e-01
1.857088269010317150e-01
1.857088269010317150e-01
1.795949560565533176e-01
1.795949560565533176e-01
1.795949560565533176e-01
1.753916698509744021e-01
1.753916698509744021e-01
1.723347344287352034e-01
1.723347344287352034e-01
1.723347344287352034e-01
1.669850974398165711e-01
1.669850974398165711e-01
1.738632021398547889e-01
1.738632021398547889e-01
1.738632021398547889e-01
1.708062667176155902e-01
1.708062667176155902e-01
1.723347344287352034e-01
1.723347344287352034e-01
1.723347344287352034e-01
1.704241497898356938e-01
1.704241497898356938e-01
1.765380206343140912e-01
1.765380206343140912e-01
1.765380206343140912e-01
1.658387466564768820e-01
1.658387466564768820e-01
1.616354604508979664e-01
1.616354604508979664e-01
1.616354604508979664e-01
1.623996943064577869e-01
1.623996943064577869e-01
1.654566297286969856e-01
1.654566297286969856e-01
1.654566297286969856e-01
1.761559037065341948e-01
1.761559037065341948e-01
1.650745128009170892e-01
1.650745128009170892e-01
1.612533435231180701e-01
1.612533435231180701e-01
1.612533435231180701e-01
1.708062667176155902e-01
1.708062667176155902e-01
1.730989682842949962e-01
1.730989682842949962e-01
1.730989682842949962e-01
1.620175773786778628e-01
1.620175773786778628e-01
1.597248758119984846e-01
1.597248758119984846e-01
1.597248758119984846e-01
1.654566297286969856e-01
1.654566297286969856e-01
1.578142911730989750e-01
1.578142911730989750e-01
1.578142911730989750e-01
1.620175773786778628e-01
1.620175773786778628e-01
1.692777990064959770e-01
1.692777990064959770e-01
1.692777990064959770e-01
1.528467711119602668e-01
1.528467711119602668e-01
1.574321742453190787e-01
1.574321742453190787e-01
1.574321742453190787e-01
1.578142911730989750e-01
1.578142911730989750e-01
1.601069927397783810e-01
1.601069927397783810e-01
1.601069927397783810e-01
1.662208635842567783e-01
1.662208635842567783e-01
1.566679403897592582e-01
1.566679403897592582e-01
1.566679403897592582e-01
1.562858234619793618e-01
1.562858234619793618e-01
1.593427588842185605e-01
1.593427588842185605e-01
1.593427588842185605e-01
1.547573557508597764e-01
1.547573557508597764e-01
1.669850974398165711e-01
1.669850974398165711e-01
1.669850974398165711e-01
1.635460450897974760e-01
1.635460450897974760e-01
1.524646541841803704e-01
1.524646541841803704e-01
1.524646541841803704e-01
1.471150171952617380e-01
1.471150171952617380e-01
1.673672143675964952e-01
1.673672143675964952e-01
1.673672143675964952e-01
1.547573557508597764e-01
1.547573557508597764e-01
1.593427588842185605e-01
1.593427588842185605e-01
1.593427588842185605e-01
1.639281620175773724e-01
1.639281620175773724e-01
1.555215896064195691e-01
1.555215896064195691e-01
1.555215896064195691e-01
1.597248758119984846e-01
1.597248758119984846e-01
1.666029805120366747e-01
1.666029805120366747e-01
1.666029805120366747e-01
1.551394726786396727e-01
1.551394726786396727e-01
1.501719526175009645e-01
1.501719526175009645e-01
1.501719526175009645e-01
1.501719526175009645e-01
1.501719526175009645e-01
1.608712265953381737e-01
1.608712265953381737e-01
1.608712265953381737e-01
1.528467711119602668e-01
1.528467711119602668e-01
1.623996943064577869e-01
1.623996943064577869e-01
1.623996943064577869e-01
1.604891096675582773e-01
1.604891096675582773e-01
1.486434849063813513e-01
1.486434849063813513e-01
1.486434849063813513e-01
1.646923958731371929e-01
1.646923958731371929e-01
1.528467711119602668e-01
1.528467711119602668e-01
1.528467711119602668e-01
1.471150171952617380e-01
1.471150171952617380e-01
1.597248758119984846e-01
1.597248758119984846e-01
1.597248758119984846e-01
1.597248758119984846e-01
1.597248758119984846e-01
1.532288880397401631e-01
1.532288880397401631e-01
1.532288880397401631e-01
1.528467711119602668e-01
1.528467711119602668e-01
1.455865494841421526e-01
1.455865494841421526e-01
1.455865494841421526e-01
1.597248758119984846e-01
1.597248758119984846e-01
1.627818112342376833e-01
1.627818112342376833e-01
1.627818112342376833e-01
1.543752388230798522e-01
1.543752388230798522e-01
1.486434849063813513e-01
1.486434849063813513e-01
1.486434849063813513e-01
1.539931218952999559e-01
1.539931218952999559e-01
1.578142911730989750e-01
1.578142911730989750e-01
1.578142911730989750e-01
1.455865494841421526e-01
1.455865494841421526e-01
1.494077187619411440e-01
1.494077187619411440e-01
1.494077187619411440e-01
1.490256018341612476e-01
1.490256018341612476e-01
1.585785250286587678e-01
1.585785250286587678e-01
1.585785250286587678e-01
1.459686664119220489e-01
1.459686664119220489e-01
1.432938479174627466e-01
1.432938479174627466e-01
1.432938479174627466e-01
1.471150171952617380e-01
1.471150171952617380e-01
1.471150171952617380e-01
1.471150171952617380e-01
1.471150171952617380e-01
1.612533435231180701e-01
1.612533435231180701e-01
1.501719526175009645e-01
1.501719526175009645e-01
1.501719526175009645e-01
1.471150171952617380e-01
1.471150171952617380e-01
1.513183034008406536e-01
1.513183034008406536e-01
1.513183034008406536e-01
1.570500573175391545e-01
1.570500573175391545e-01
1.467329002674818417e-01
1.467329002674818417e-01
1.467329002674818417e-01
1.566679403897592582e-01
1.566679403897592582e-01
1.566679403897592582e-01
1.566679403897592582e-01
1.566679403897592582e-01
1.539931218952999559e-01
1.539931218952999559e-01
1.478792510508215585e-01
1.478792510508215585e-01
1.478792510508215585e-01
1.459686664119220489e-01
1.459686664119220489e-01
1.448223156285823598e-01
1.448223156285823598e-01
1.448223156285823598e-01
1.555215896064195691e-01
1.555215896064195691e-01
1.612533435231180701e-01
1.612533435231180701e-01
1.612533435231180701e-01
1.513183034008406536e-01
1.513183034008406536e-01
1.486434849063813513e-01
1.486434849063813513e-01
1.486434849063813513e-01
1.612533435231180701e-01
1.612533435231180701e-01
1.574321742453190787e-01
1.574321742453190787e-01
1.574321742453190787e-01
1.410011463507833407e-01
1.410011463507833407e-01
1.532288880397401631e-01
1.532288880397401631e-01
1.532288880397401631e-01
1.432938479174627466e-01
1.432938479174627466e-01
1.452044325563622562e-01
1.452044325563622562e-01
1.501719526175009645e-01
1.501719526175009645e-01
1.501719526175009645e-01
1.574321742453190787e-01
1.574321742453190787e-01
1.620175773786778628e-01
1.620175773786778628e-01
1.620175773786778628e-01
1.566679403897592582e-01
1.566679403897592582e-01
1.559037065341994654e-01
1.559037065341994654e-01
1.559037065341994654e-01
1.551394726786396727e-01
1.551394726786396727e-01
1.432938479174627466e-01
1.432938479174627466e-01
1.432938479174627466e-01
1.562858234619793618e-01
1.562858234619793618e-01
1.452044325563622562e-01
1.452044325563622562e-01
1.452044325563622562e-01
1.543752388230798522e-01
1.543752388230798522e-01
1.551394726786396727e-01
1.551394726786396727e-01
1.551394726786396727e-01
1.543752388230798522e-01
1.543752388230798522e-01
1.578142911730989750e-01
1.578142911730989750e-01
1.578142911730989750e-01
1.501719526175009645e-01
1.501719526175009645e-01
1.429117309896828503e-01
1.429117309896828503e-01
1.429117309896828503e-01
1.490256018341612476e-01
1.490256018341612476e-01
1.555215896064195691e-01
1.555215896064195691e-01
1.555215896064195691e-01
1.608712265953381737e-01
1.608712265953381737e-01
1.539931218952999559e-01
1.539931218952999559e-01
1.539931218952999559e-01
1.436759648452426430e-01
1.436759648452426430e-01
1.467329002674818417e-01
1.467329002674818417e-01
1.467329002674818417e-01
1.517004203286205499e-01
1.517004203286205499e-01
1.413832632785632371e-01
1.413832632785632371e-01
1.413832632785632371e-01
1.494077187619411440e-01
1.494077187619411440e-01
1.444401987008024357e-01
1.444401987008024357e-01
1.444401987008024357e-01
1.646923958731371929e-01
1.646923958731371929e-01
1.455865494841421526e-01
1.455865494841421526e-01
1.455865494841421526e-01
1.513183034008406536e-01
1.513183034008406536e-01
1.620175773786778628e-01
1.620175773786778628e-01
1.620175773786778628e-01
1.440580817730225394e-01
1.440580817730225394e-01
1.517004203286205499e-01
1.517004203286205499e-01
1.517004203286205499e-01
1.673672143675964952e-01
1.673672143675964952e-01
1.597248758119984846e-01
1.597248758119984846e-01
1.597248758119984846e-01
1.543752388230798522e-01
1.543752388230798522e-01
1.711883836453954866e-01
1.711883836453954866e-01
1.711883836453954866e-01
1.723347344287352034e-01
1.723347344287352034e-01
1.635460450897974760e-01
1.635460450897974760e-01
1.635460450897974760e-01
1.837982422621322054e-01
1.837982422621322054e-01
1.795949560565533176e-01
1.795949560565533176e-01
1.795949560565533176e-01
1.948796331677493388e-01
1.948796331677493388e-01
1.822697745510126199e-01
1.822697745510126199e-01
1.822697745510126199e-01
1.990829193733282265e-01
1.990829193733282265e-01
2.105464272067252562e-01
2.105464272067252562e-01
2.105464272067252562e-01
1.979365685899885374e-01
1.979365685899885374e-01
2.113106610622850490e-01
2.113106610622850490e-01
2.113106610622850490e-01
2.193351165456629837e-01
2.193351165456629837e-01
2.353840275124187975e-01
2.353840275124187975e-01
2.353840275124187975e-01
2.307986243790599856e-01
2.307986243790599856e-01
2.327092090179594952e-01
2.327092090179594952e-01
2.327092090179594952e-01
2.487581199847153091e-01
2.487581199847153091e-01
2.533435231180741209e-01
2.533435231180741209e-01
2.533435231180741209e-01
2.560183416125334510e-01
2.560183416125334510e-01
2.575468093236530365e-01
2.575468093236530365e-01
2.575468093236530365e-01
2.621322124570118484e-01
2.621322124570118484e-01
2.846771111960260114e-01
2.846771111960260114e-01
2.846771111960260114e-01
2.751241880015284913e-01
2.751241880015284913e-01
2.927015666794038906e-01
2.927015666794038906e-01
2.927015666794038906e-01
3.030187237294612035e-01
3.030187237294612035e-01
2.915552158960642015e-01
2.915552158960642015e-01
2.915552158960642015e-01
3.030187237294612035e-01
3.030187237294612035e-01
3.037829575850209962e-01
3.037829575850209962e-01
3.037829575850209962e-01
3.225066870462361401e-01
3.225066870462361401e-01
3.316774933129537639e-01
3.316774933129537639e-01
3.316774933129537639e-01
3.251815055406954702e-01
3.251815055406954702e-01
3.339701948796331421e-01
3.339701948796331421e-01
3.339701948796331421e-01
3.354986625907527831e-01
3.354986625907527831e-01
3.332059610240733494e-01
3.332059610240733494e-01
3.332059610240733494e-01
3.412304165074512841e-01
3.412304165074512841e-01
3.553687428353076161e-01
3.553687428353076161e-01
3.553687428353076161e-01
3.481085212074894741e-01
3.481085212074894741e-01
3.607183798242262207e-01
3.607183798242262207e-01
3.607183798242262207e-01
3.611004967520061171e-01
3.611004967520061171e-01
3.538402751241879751e-01
3.538402751241879751e-01
3.538402751241879751e-01
3.622468475353458062e-01
3.622468475353458062e-01
3.672143675964845144e-01
3.672143675964845144e-01
3.672143675964845144e-01
3.675964845242644108e-01
3.675964845242644108e-01
3.733282384409629118e-01
3.733282384409629118e-01
3.733282384409629118e-01
3.714176538020634299e-01
3.714176538020634299e-01
3.794421092854413646e-01
3.794421092854413646e-01
3.794421092854413646e-01
3.821169277799006392e-01
3.821169277799006392e-01
3.782957585021016200e-01
3.782957585021016200e-01
3.782957585021016200e-01
3.836453954910202246e-01
3.836453954910202246e-01
3.878486816965991402e-01
3.878486816965991402e-01
3.924340848299579521e-01
3.924340848299579521e-01
3.924340848299579521e-01
3.813526939243408465e-01
3.813526939243408465e-01
3.951089033244172821e-01
3.951089033244172821e-01
3.951089033244172821e-01
3.939625525410775930e-01
3.939625525410775930e-01
3.977837218188765567e-01
3.977837218188765567e-01
3.977837218188765567e-01
3.989300726022163013e-01
3.989300726022163013e-01
4.000764233855559904e-01
4.000764233855559904e-01
4.000764233855559904e-01
3.893771494077187811e-01
3.893771494077187811e-01
3.851738632021398656e-01
3.851738632021398656e-01
3.851738632021398656e-01
4.081008788689338695e-01
4.081008788689338695e-01
3.966373710355368676e-01
3.966373710355368676e-01
3.966373710355368676e-01
3.947267863966373858e-01
3.947267863966373858e-01
3.943446694688574894e-01
3.943446694688574894e-01
3.943446694688574894e-01
3.939625525410775930e-01
3.939625525410775930e-01
4.069545280855941805e-01
4.069545280855941805e-01
4.069545280855941805e-01
4.054260603744745950e-01
4.054260603744745950e-01
3.996943064577760940e-01
3.996943064577760940e-01
3.996943064577760940e-01
4.004585403133358867e-01
4.004585403133358867e-01
3.993121895299961976e-01
3.993121895299961976e-01
3.993121895299961976e-01
4.031333588077951613e-01
4.031333588077951613e-01
4.008406572411157831e-01
4.008406572411157831e-01
4.008406572411157831e-01
4.000764233855559904e-01
4.000764233855559904e-01
4.023691249522353686e-01
4.023691249522353686e-01
4.023691249522353686e-01
3.954910202521971785e-01
3.954910202521971785e-01
4.081008788689338695e-01
4.081008788689338695e-01
4.081008788689338695e-01
3.928162017577378484e-01
3.928162017577378484e-01
4.031333588077951613e-01
4.031333588077951613e-01
4.031333588077951613e-01
3.943446694688574894e-01
3.943446694688574894e-01
4.054260603744745950e-01
4.054260603744745950e-01
4.054260603744745950e-01
3.996943064577760940e-01
3.996943064577760940e-01
4.023691249522353686e-01
4.023691249522353686e-01
4.023691249522353686e-01
4.016048910966755758e-01
4.016048910966755758e-01
3.947267863966373858e-01
3.947267863966373858e-01
3.947267863966373858e-01
4.019870080244554722e-01
4.019870080244554722e-01
3.981658387466564530e-01
3.981658387466564530e-01
3.981658387466564530e-01
4.016048910966755758e-01
4.016048910966755758e-01
4.008406572411157831e-01
4.008406572411157831e-01
4.008406572411157831e-01
4.012227741688956795e-01
4.012227741688956795e-01
3.912877340466182630e-01
3.912877340466182630e-01
3.912877340466182630e-01
3.886129155521589329e-01
3.886129155521589329e-01
3.851738632021398656e-01
3.851738632021398656e-01
3.851738632021398656e-01
3.828811616354604319e-01
3.828811616354604319e-01
3.970194879633167639e-01
3.970194879633167639e-01
3.970194879633167639e-01
3.867023309132594511e-01
3.867023309132594511e-01
3.954910202521971785e-01
3.954910202521971785e-01
3.954910202521971785e-01
3.813526939243408465e-01
3.813526939243408465e-01
3.863202139854795547e-01
3.863202139854795547e-01
3.863202139854795547e-01
3.798242262132212610e-01
3.798242262132212610e-01
3.756209400076423455e-01
3.756209400076423455e-01
3.756209400076423455e-01
3.855559801299197620e-01
3.855559801299197620e-01
3.824990447076805355e-01
3.824990447076805355e-01
3.824990447076805355e-01
3.779136415743217237e-01
3.779136415743217237e-01
3.763851738632021382e-01
3.763851738632021382e-01
3.763851738632021382e-01
3.779136415743217237e-01
3.779136415743217237e-01
3.763851738632021382e-01
3.763851738632021382e-01
3.763851738632021382e-01
3.653037829575850326e-01
3.653037829575850326e-01
3.672143675964845144e-01
3.672143675964845144e-01
3.672143675964845144e-01
3.771494077187619309e-01
3.771494077187619309e-01
3.675964845242644108e-01
3.675964845242644108e-01
3.675964845242644108e-01
3.683607183798242035e-01
3.683607183798242035e-01
3.557508597630875125e-01
3.557508597630875125e-01
3.557508597630875125e-01
3.515475735575085969e-01
3.515475735575085969e-01
3.568972105464272015e-01
3.568972105464272015e-01
3.568972105464272015e-01
3.431410011463507659e-01
3.431410011463507659e-01
3.549866259075277197e-01
3.549866259075277197e-01
3.549866259075277197e-01
3.442873519296905105e-01
3.442873519296905105e-01
3.358807795185326794e-01
3.358807795185326794e-01
3.358807795185326794e-01
3.354986625907527831e-01
3.354986625907527831e-01
3.343523118074130940e-01
3.343523118074130940e-01
3.343523118074130940e-01
3.446694688574704069e-01
3.446694688574704069e-01
3.255636224684753666e-01
3.255636224684753666e-01
3.255636224684753666e-01
3.179212839128773282e-01
3.179212839128773282e-01
3.244172716851356775e-01
3.244172716851356775e-01
3.244172716851356775e-01
3.110431792128391382e-01
3.110431792128391382e-01
3.186855177684371210e-01
3.186855177684371210e-01
3.186855177684371210e-01
3.121895299961788273e-01
3.121895299961788273e-01
3.152464654184180537e-01
3.152464654184180537e-01
3.152464654184180537e-01
3.095147115017195527e-01
3.095147115017195527e-01
3.041650745128008926e-01
3.041650745128008926e-01
3.041650745128008926e-01
2.938479174627435797e-01
2.938479174627435797e-01
2.927015666794038906e-01
2.927015666794038906e-01
2.957585021016431170e-01
2.957585021016431170e-01
2.957585021016431170e-01
2.854413450515858042e-01
2.854413450515858042e-01
2.995796713794421362e-01
2.995796713794421362e-01
2.995796713794421362e-01
2.793274742071073513e-01
2.793274742071073513e-01
2.835307604126862668e-01
2.835307604126862668e-01
2.835307604126862668e-01
2.862055789071455969e-01
2.862055789071455969e-01
2.747420710737485394e-01
2.747420710737485394e-01
2.747420710737485394e-01
2.820022927015666814e-01
2.820022927015666814e-01
2.709209017959495758e-01
2.709209017959495758e-01
2.709209017959495758e-01
2.686282002292701421e-01
2.686282002292701421e-01
2.701566679403897830e-01
2.701566679403897830e-01
2.701566679403897830e-01
2.693924340848299348e-01
2.693924340848299348e-01
2.644249140236912266e-01
2.644249140236912266e-01
2.644249140236912266e-01
2.648070309514711229e-01
2.648070309514711229e-01
2.613679786014520556e-01
2.613679786014520556e-01
2.613679786014520556e-01
2.655712648070309712e-01
2.655712648070309712e-01
2.655712648070309712e-01
2.655712648070309712e-01
2.655712648070309712e-01
2.575468093236530365e-01
2.575468093236530365e-01
2.583110431792128292e-01
2.583110431792128292e-01
2.583110431792128292e-01
2.556362246847535546e-01
2.556362246847535546e-01
2.564004585403133474e-01
2.564004585403133474e-01
2.564004585403133474e-01
2.487581199847153091e-01
2.487581199847153091e-01
2.502865876958349500e-01
2.502865876958349500e-01
2.502865876958349500e-01
2.468475353458158272e-01
2.468475353458158272e-01
2.663354986625907639e-01
2.663354986625907639e-01
2.663354986625907639e-01
2.514329384791746391e-01
2.514329384791746391e-01
2.544898739014138100e-01
2.544898739014138100e-01
2.544898739014138100e-01
2.548719908291937064e-01
2.548719908291937064e-01
2.579289262514329328e-01
2.579289262514329328e-01
2.579289262514329328e-01
2.441727168513565249e-01
2.441727168513565249e-01
2.594573939625525183e-01
2.594573939625525183e-01
2.594573939625525183e-01
2.468475353458158272e-01
2.468475353458158272e-01
2.502865876958349500e-01
2.502865876958349500e-01
2.502865876958349500e-01
2.479938861291555163e-01
2.479938861291555163e-01
2.353840275124187975e-01
2.353840275124187975e-01
2.353840275124187975e-01
2.422621322124570153e-01
2.422621322124570153e-01
2.510508215513947428e-01
2.510508215513947428e-01
2.510508215513947428e-01
2.399694306457776094e-01
2.399694306457776094e-01
2.304165074512800893e-01
2.304165074512800893e-01
2.304165074512800893e-01
2.315628582346198061e-01
2.315628582346198061e-01
2.411157814291172985e-01
2.411157814291172985e-01
2.411157814291172985e-01
2.315628582346198061e-01
2.315628582346198061e-01
2.338555598012991843e-01
2.338555598012991843e-01
2.338555598012991843e-01
2.288880397401604760e-01
2.288880397401604760e-01
2.384409629346579962e-01
2.384409629346579962e-01
2.384409629346579962e-01
2.342376767290791084e-01
2.342376767290791084e-01
2.342376767290791084e-01
2.342376767290791084e-01
2.342376767290791084e-01
2.307986243790599856e-01
2.307986243790599856e-01
2.380588460068780998e-01
2.380588460068780998e-01
2.380588460068780998e-01
2.334734428735192879e-01
2.334734428735192879e-01
2.223920519679021823e-01
2.223920519679021823e-01
2.223920519679021823e-01
2.246847535345815883e-01
2.246847535345815883e-01
2.216278181123423896e-01
2.216278181123423896e-01
2.216278181123423896e-01
2.300343905235001929e-01
2.300343905235001929e-01
2.292701566679404002e-01
2.292701566679404002e-01
2.292701566679404002e-01
2.269774551012609942e-01
2.269774551012609942e-01
2.262132212457011737e-01
2.262132212457011737e-01
2.262132212457011737e-01
2.315628582346198061e-01
2.315628582346198061e-01
2.258311043179212774e-01
2.258311043179212774e-01
2.258311043179212774e-01
2.166602980512036813e-01
2.166602980512036813e-01
2.200993504012227764e-01
2.200993504012227764e-01
2.200993504012227764e-01
2.212457011845624655e-01
2.212457011845624655e-01
2.231562858234619751e-01
2.231562858234619751e-01
2.231562858234619751e-01
2.204814673290026728e-01
2.204814673290026728e-01
2.216278181123423896e-01
2.216278181123423896e-01
2.216278181123423896e-01
2.197172334734428800e-01
2.197172334734428800e-01
2.051967902178066516e-01
2.051967902178066516e-01
2.051967902178066516e-01
2.067252579289262648e-01
2.067252579289262648e-01
2.078716087122659539e-01
2.078716087122659539e-01
2.078716087122659539e-01
2.185708826901031632e-01
2.185708826901031632e-01
2.044325563622468589e-01
2.044325563622468589e-01
2.044325563622468589e-01
2.017577378677875566e-01
2.017577378677875566e-01
2.021398547955674529e-01
2.021398547955674529e-01
2.021398547955674529e-01
1.994650363011081506e-01
1.994650363011081506e-01
1.983186855177684338e-01
1.983186855177684338e-01
1.983186855177684338e-01
2.067252579289262648e-01
2.067252579289262648e-01
1.906763469621704232e-01
1.906763469621704232e-01
1.906763469621704232e-01
2.002292701566679434e-01
2.002292701566679434e-01
1.964081008788689242e-01
1.964081008788689242e-01
1.964081008788689242e-01
1.891478792510508100e-01
1.891478792510508100e-01
2.002292701566679434e-01
2.002292701566679434e-01
1.944975162399694424e-01
1.944975162399694424e-01
1.944975162399694424e-01
1.929690485288498292e-01
1.929690485288498292e-01
1.872372946121513282e-01
1.872372946121513282e-01
1.872372946121513282e-01
1.914405808177302160e-01
1.914405808177302160e-01
1.922048146732900364e-01
1.922048146732900364e-01
1.922048146732900364e-01
1.998471532288880470e-01
1.998471532288880470e-01
1.971723347344287447e-01
1.971723347344287447e-01
1.971723347344287447e-01
1.815055406954527994e-01
1.815055406954527994e-01
1.837982422621322054e-01
1.837982422621322054e-01
1.837982422621322054e-01
1.769201375620939876e-01
1.769201375620939876e-01
1.826518914787925163e-01
1.826518914787925163e-01
1.826518914787925163e-01
1.952617500955292351e-01
1.952617500955292351e-01
1.914405808177302160e-01
1.914405808177302160e-01
1.914405808177302160e-01
1.818876576232326958e-01
1.818876576232326958e-01
1.864730607565915077e-01
1.864730607565915077e-01
1.864730607565915077e-01
1.746274359954146094e-01
1.746274359954146094e-01
1.918226977455101123e-01
1.918226977455101123e-01
1.918226977455101123e-01
1.750095529231945057e-01
1.750095529231945057e-01
1.750095529231945057e-01
1.750095529231945057e-01
1.750095529231945057e-01
1.776843714176538080e-01
1.776843714176538080e-01
1.700420328620557975e-01
1.700420328620557975e-01
1.700420328620557975e-01
1.795949560565533176e-01
1.795949560565533176e-01
1.685135651509361843e-01
1.685135651509361843e-01
1.685135651509361843e-01
1.757737867787542985e-01
1.757737867787542985e-01
1.792128391287733935e-01
1.792128391287733935e-01
1.792128391287733935e-01
1.837982422621322054e-01
1.837982422621322054e-01
1.719526175009552793e-01
1.719526175009552793e-01
1.719526175009552793e-01
1.769201375620939876e-01
1.769201375620939876e-01
1.757737867787542985e-01
1.757737867787542985e-01
1.757737867787542985e-01
1.692777990064959770e-01
1.692777990064959770e-01
1.578142911730989750e-01
1.578142911730989750e-01
1.578142911730989750e-01
1.639281620175773724e-01
1.639281620175773724e-01
1.757737867787542985e-01
1.757737867787542985e-01
1.757737867787542985e-01
1.692777990064959770e-01
1.692777990064959770e-01
1.700420328620557975e-01
1.700420328620557975e-01
1.700420328620557975e-01
1.750095529231945057e-01
1.750095529231945057e-01
1.650745128009170892e-01
1.650745128009170892e-01
1.650745128009170892e-01
1.673672143675964952e-01
1.673672143675964952e-01
1.704241497898356938e-01
1.704241497898356938e-01
1.704241497898356938e-01
1.581964081008788714e-01
1.581964081008788714e-01
1.650745128009170892e-01
1.650745128009170892e-01
1.650745128009170892e-01
1.536110049675200595e-01
1.536110049675200595e-01
1.574321742453190787e-01
1.574321742453190787e-01
1.574321742453190787e-01
1.585785250286587678e-01
1.585785250286587678e-01
1.524646541841803704e-01
1.524646541841803704e-01
1.524646541841803704e-01
1.589606419564386641e-01
1.589606419564386641e-01
1.578142911730989750e-01
1.578142911730989750e-01
1.578142911730989750e-01
1.723347344287352034e-01
1.723347344287352034e-01
1.559037065341994654e-01
1.559037065341994654e-01
1.559037065341994654e-01
1.517004203286205499e-01
1.517004203286205499e-01
1.524646541841803704e-01
1.524646541841803704e-01
1.524646541841803704e-01
1.581964081008788714e-01
1.581964081008788714e-01
1.536110049675200595e-01
1.536110049675200595e-01
1.536110049675200595e-01
1.578142911730989750e-01
1.578142911730989750e-01
1.608712265953381737e-01
1.608712265953381737e-01
1.608712265953381737e-01
1.513183034008406536e-01
1.513183034008406536e-01
1.490256018341612476e-01
1.490256018341612476e-01
1.490256018341612476e-01
1.639281620175773724e-01
1.639281620175773724e-01
1.635460450897974760e-01
1.635460450897974760e-01
1.635460450897974760e-01
1.513183034008406536e-01
1.513183034008406536e-01
1.608712265953381737e-01
1.608712265953381737e-01
1.608712265953381737e-01
1.597248758119984846e-01
1.597248758119984846e-01
1.467329002674818417e-01
1.467329002674818417e-01
1.467329002674818417e-01
1.570500573175391545e-01
1.570500573175391545e-01
1.490256018341612476e-01
1.490256018341612476e-01
1.490256018341612476e-01
1.570500573175391545e-01
1.570500573175391545e-01
1.581964081008788714e-01
1.581964081008788714e-01
1.581964081008788714e-01
1.463507833397019453e-01
1.463507833397019453e-01
1.566679403897592582e-01
1.566679403897592582e-01
1.566679403897592582e-01
1.517004203286205499e-01
1.517004203286205499e-01
1.574321742453190787e-01
1.574321742453190787e-01
1.574321742453190787e-01
1.543752388230798522e-01
1.543752388230798522e-01
1.585785250286587678e-01
1.585785250286587678e-01
1.585785250286587678e-01
1.608712265953381737e-01
1.608712265953381737e-01
1.505540695452808608e-01
1.505540695452808608e-01
1.505540695452808608e-01
1.494077187619411440e-01
1.494077187619411440e-01
1.532288880397401631e-01
1.532288880397401631e-01
1.532288880397401631e-01
1.444401987008024357e-01
1.444401987008024357e-01
1.452044325563622562e-01
1.452044325563622562e-01
1.452044325563622562e-01
1.551394726786396727e-01
1.551394726786396727e-01
1.444401987008024357e-01
1.444401987008024357e-01
1.444401987008024357e-01
1.570500573175391545e-01
1.570500573175391545e-01
1.566679403897592582e-01
1.566679403897592582e-01
1.559037065341994654e-01
1.559037065341994654e-01
1.559037065341994654e-01
1.478792510508215585e-01
1.478792510508215585e-01
1.486434849063813513e-01
1.486434849063813513e-01
1.486434849063813513e-01
