1.868551776843714041e-01
1.868551776843714041e-01
1.872372946121513282e-01
1.872372946121513282e-01
1.872372946121513282e-01
1.902942300343905269e-01
1.902942300343905269e-01
1.887657623232709136e-01
1.887657623232709136e-01
1.887657623232709136e-01
1.795949560565533176e-01
1.795949560565533176e-01
1.887657623232709136e-01
1.887657623232709136e-01
1.887657623232709136e-01
1.902942300343905269e-01
1.902942300343905269e-01
1.868551776843714041e-01
1.868551776843714041e-01
1.868551776843714041e-01
1.746274359954146094e-01
1.746274359954146094e-01
1.746274359954146094e-01
1.746274359954146094e-01
1.746274359954146094e-01
1.849445930454719222e-01
1.849445930454719222e-01
1.757737867787542985e-01
1.757737867787542985e-01
1.715705005731753829e-01
1.715705005731753829e-01
1.715705005731753829e-01
1.761559037065341948e-01
1.761559037065341948e-01
1.788307222009934971e-01
1.788307222009934971e-01
1.788307222009934971e-01
1.845624761176920259e-01
1.845624761176920259e-01
1.711883836453954866e-01
1.711883836453954866e-01
1.711883836453954866e-01
1.792128391287733935e-01
1.792128391287733935e-01
1.719526175009552793e-01
1.719526175009552793e-01
1.719526175009552793e-01
1.746274359954146094e-01
1.746274359954146094e-01
1.719526175009552793e-01
1.719526175009552793e-01
1.719526175009552793e-01
1.727168513565150998e-01
1.727168513565150998e-01
1.776843714176538080e-01
1.776843714176538080e-01
1.776843714176538080e-01
1.700420328620557975e-01
1.700420328620557975e-01
1.669850974398165711e-01
1.669850974398165711e-01
1.669850974398165711e-01
1.666029805120366747e-01
1.666029805120366747e-01
1.597248758119984846e-01
1.597248758119984846e-01
1.597248758119984846e-01
1.646923958731371929e-01
1.646923958731371929e-01
1.601069927397783810e-01
1.601069927397783810e-01
1.601069927397783810e-01
1.555215896064195691e-01
1.555215896064195691e-01
1.555215896064195691e-01
1.555215896064195691e-01
1.555215896064195691e-01
1.608712265953381737e-01
1.608712265953381737e-01
1.627818112342376833e-01
1.627818112342376833e-01
1.627818112342376833e-01
1.620175773786778628e-01
1.620175773786778628e-01
1.509361864730607572e-01
1.509361864730607572e-01
1.509361864730607572e-01
1.551394726786396727e-01
1.551394726786396727e-01
1.566679403897592582e-01
1.566679403897592582e-01
1.566679403897592582e-01
1.585785250286587678e-01
1.585785250286587678e-01
1.517004203286205499e-01
1.517004203286205499e-01
1.517004203286205499e-01
1.631639281620175796e-01
1.631639281620175796e-01
1.616354604508979664e-01
1.616354604508979664e-01
1.616354604508979664e-01
1.635460450897974760e-01
1.635460450897974760e-01
1.513183034008406536e-01
1.513183034008406536e-01
1.513183034008406536e-01
1.444401987008024357e-01
1.444401987008024357e-01
1.406190294230034443e-01
1.406190294230034443e-01
1.406190294230034443e-01
1.597248758119984846e-01
1.597248758119984846e-01
1.455865494841421526e-01
1.455865494841421526e-01
1.455865494841421526e-01
1.482613679786014549e-01
1.482613679786014549e-01
1.452044325563622562e-01
1.452044325563622562e-01
1.452044325563622562e-01
1.429117309896828503e-01
1.429117309896828503e-01
1.425296140619029539e-01
1.425296140619029539e-01
1.425296140619029539e-01
1.528467711119602668e-01
1.528467711119602668e-01
1.494077187619411440e-01
1.494077187619411440e-01
1.494077187619411440e-01
1.539931218952999559e-01
1.539931218952999559e-01
1.536110049675200595e-01
1.536110049675200595e-01
1.536110049675200595e-01
1.486434849063813513e-01
1.486434849063813513e-01
1.505540695452808608e-01
1.505540695452808608e-01
1.505540695452808608e-01
1.463507833397019453e-01
1.463507833397019453e-01
1.333588077951853301e-01
1.333588077951853301e-01
1.333588077951853301e-01
1.383263278563240384e-01
1.383263278563240384e-01
1.432938479174627466e-01
1.432938479174627466e-01
1.432938479174627466e-01
1.310661062285059242e-01
1.310661062285059242e-01
1.410011463507833407e-01
1.410011463507833407e-01
1.410011463507833407e-01
1.383263278563240384e-01
1.383263278563240384e-01
1.360336262896446324e-01
1.360336262896446324e-01
1.360336262896446324e-01
1.379442109285441420e-01
1.379442109285441420e-01
1.390905617118838311e-01
1.390905617118838311e-01
1.390905617118838311e-01
1.268628200229270087e-01
1.268628200229270087e-01
1.276270538784868291e-01
1.276270538784868291e-01
1.276270538784868291e-01
1.341230416507451229e-01
1.341230416507451229e-01
1.398547955674436516e-01
1.398547955674436516e-01
1.398547955674436516e-01
1.367978601452044252e-01
1.367978601452044252e-01
1.314482231562858205e-01
1.314482231562858205e-01
1.314482231562858205e-01
1.352693924340848397e-01
1.352693924340848397e-01
1.341230416507451229e-01
1.341230416507451229e-01
1.341230416507451229e-01
1.333588077951853301e-01
1.333588077951853301e-01
1.280091708062667255e-01
1.280091708062667255e-01
1.280091708062667255e-01
1.402369124952235480e-01
1.402369124952235480e-01
1.314482231562858205e-01
1.314482231562858205e-01
1.314482231562858205e-01
1.280091708062667255e-01
1.280091708062667255e-01
1.280091708062667255e-01
1.280091708062667255e-01
1.280091708062667255e-01
1.345051585785250192e-01
1.345051585785250192e-01
1.371799770729843215e-01
1.371799770729843215e-01
1.371799770729843215e-01
1.352693924340848397e-01
1.352693924340848397e-01
1.375620940007642456e-01
1.375620940007642456e-01
1.375620940007642456e-01
1.318303400840657169e-01
1.318303400840657169e-01
1.215131830340084040e-01
1.215131830340084040e-01
1.215131830340084040e-01
1.425296140619029539e-01
1.425296140619029539e-01
1.394726786396637275e-01
1.394726786396637275e-01
1.394726786396637275e-01
1.310661062285059242e-01
1.310661062285059242e-01
1.260985861673672159e-01
1.260985861673672159e-01
1.260985861673672159e-01
1.325945739396255374e-01
1.325945739396255374e-01
1.276270538784868291e-01
1.276270538784868291e-01
1.276270538784868291e-01
1.387084447841039347e-01
1.387084447841039347e-01
1.383263278563240384e-01
1.383263278563240384e-01
1.310661062285059242e-01
1.310661062285059242e-01
1.310661062285059242e-01
1.364157432174245288e-01
1.364157432174245288e-01
1.257164692395873196e-01
1.257164692395873196e-01
1.257164692395873196e-01
1.364157432174245288e-01
1.364157432174245288e-01
1.440580817730225394e-01
1.440580817730225394e-01
1.440580817730225394e-01
1.253343523118074232e-01
1.253343523118074232e-01
1.295376385173863110e-01
1.295376385173863110e-01
1.295376385173863110e-01
1.299197554451662073e-01
1.299197554451662073e-01
1.364157432174245288e-01
1.364157432174245288e-01
1.364157432174245288e-01
1.367978601452044252e-01
1.367978601452044252e-01
1.249522353840275130e-01
1.249522353840275130e-01
1.249522353840275130e-01
1.303018723729461315e-01
1.303018723729461315e-01
1.383263278563240384e-01
1.383263278563240384e-01
1.383263278563240384e-01
1.226595338173481070e-01
1.226595338173481070e-01
1.345051585785250192e-01
1.345051585785250192e-01
1.345051585785250192e-01
1.287734046618265182e-01
1.287734046618265182e-01
1.371799770729843215e-01
1.371799770729843215e-01
1.371799770729843215e-01
1.367978601452044252e-01
1.367978601452044252e-01
1.299197554451662073e-01
1.299197554451662073e-01
1.299197554451662073e-01
1.360336262896446324e-01
1.360336262896446324e-01
1.287734046618265182e-01
1.287734046618265182e-01
1.287734046618265182e-01
1.402369124952235480e-01
1.402369124952235480e-01
1.241880015284677063e-01
1.241880015284677063e-01
1.241880015284677063e-01
1.341230416507451229e-01
1.341230416507451229e-01
1.211310661062285077e-01
1.211310661062285077e-01
1.211310661062285077e-01
1.272449369507069050e-01
1.272449369507069050e-01
1.436759648452426430e-01
1.436759648452426430e-01
1.436759648452426430e-01
1.287734046618265182e-01
1.287734046618265182e-01
1.306839893007260278e-01
1.306839893007260278e-01
1.306839893007260278e-01
1.318303400840657169e-01
1.318303400840657169e-01
1.203668322506687011e-01
1.203668322506687011e-01
1.203668322506687011e-01
1.260985861673672159e-01
1.260985861673672159e-01
1.299197554451662073e-01
1.299197554451662073e-01
1.299197554451662073e-01
1.264807030951471123e-01
1.264807030951471123e-01
1.291555215896064146e-01
1.291555215896064146e-01
1.291555215896064146e-01
1.272449369507069050e-01
1.272449369507069050e-01
1.345051585785250192e-01
1.345051585785250192e-01
1.345051585785250192e-01
1.283912877340466219e-01
1.283912877340466219e-01
1.280091708062667255e-01
1.280091708062667255e-01
1.280091708062667255e-01
1.234237676729079136e-01
1.234237676729079136e-01
1.176920137562093988e-01
1.176920137562093988e-01
1.176920137562093988e-01
1.306839893007260278e-01
1.306839893007260278e-01
1.295376385173863110e-01
1.295376385173863110e-01
1.295376385173863110e-01
1.318303400840657169e-01
1.318303400840657169e-01
1.436759648452426430e-01
1.436759648452426430e-01
1.436759648452426430e-01
1.348872755063049156e-01
1.348872755063049156e-01
1.444401987008024357e-01
1.444401987008024357e-01
1.444401987008024357e-01
1.436759648452426430e-01
1.436759648452426430e-01
1.474971341230416622e-01
1.474971341230416622e-01
1.474971341230416622e-01
1.517004203286205499e-01
1.517004203286205499e-01
1.685135651509361843e-01
1.685135651509361843e-01
1.685135651509361843e-01
1.711883836453954866e-01
1.711883836453954866e-01
1.715705005731753829e-01
1.715705005731753829e-01
1.715705005731753829e-01
1.780664883454337044e-01
1.780664883454337044e-01
1.769201375620939876e-01
1.769201375620939876e-01
1.769201375620939876e-01
1.868551776843714041e-01
1.868551776843714041e-01
1.925869316010699328e-01
1.925869316010699328e-01
1.925869316010699328e-01
2.086358425678257467e-01
2.086358425678257467e-01
2.051967902178066516e-01
2.051967902178066516e-01
2.051967902178066516e-01
2.246847535345815883e-01
2.246847535345815883e-01
2.220099350401222860e-01
2.220099350401222860e-01
2.220099350401222860e-01
2.265953381734810979e-01
2.265953381734810979e-01
2.365303782957585144e-01
2.365303782957585144e-01
2.365303782957585144e-01
2.300343905235001929e-01
2.300343905235001929e-01
2.487581199847153091e-01
2.487581199847153091e-01
2.487581199847153091e-01
2.495223538402751295e-01
2.495223538402751295e-01
2.556362246847535546e-01
2.556362246847535546e-01
2.556362246847535546e-01
2.716851356515093685e-01
2.716851356515093685e-01
2.701566679403897830e-01
2.701566679403897830e-01
2.701566679403897830e-01
2.720672525792892649e-01
2.720672525792892649e-01
2.781811234237676622e-01
2.781811234237676622e-01
2.781811234237676622e-01
2.812380588460068886e-01
2.812380588460068886e-01
2.877340466182651824e-01
2.877340466182651824e-01
2.877340466182651824e-01
3.034008406572410999e-01
3.034008406572410999e-01
2.976690867405425989e-01
2.976690867405425989e-01
2.976690867405425989e-01
3.102789453572793454e-01
3.102789453572793454e-01
3.125716469239587236e-01
3.125716469239587236e-01
3.125716469239587236e-01
3.098968284294994491e-01
3.098968284294994491e-01
3.175391669850974319e-01
3.175391669850974319e-01
3.175391669850974319e-01
3.141001146350783091e-01
3.141001146350783091e-01
3.312953763851738676e-01
3.312953763851738676e-01
3.152464654184180537e-01
3.152464654184180537e-01
3.152464654184180537e-01
3.305311425296140748e-01
3.305311425296140748e-01
3.293847917462743857e-01
3.293847917462743857e-01
3.293847917462743857e-01
3.400840657241115950e-01
3.400840657241115950e-01
3.354986625907527831e-01
3.354986625907527831e-01
3.354986625907527831e-01
3.351165456629728867e-01
3.351165456629728867e-01
3.400840657241115950e-01
3.400840657241115950e-01
3.400840657241115950e-01
3.347344287351929903e-01
3.347344287351929903e-01
3.351165456629728867e-01
3.351165456629728867e-01
3.351165456629728867e-01
3.423767672907909732e-01
3.423767672907909732e-01
3.416125334352311804e-01
3.416125334352311804e-01
3.416125334352311804e-01
3.439052350019105586e-01
3.439052350019105586e-01
3.465800534963698887e-01
3.465800534963698887e-01
3.465800534963698887e-01
3.618647306075659098e-01
3.618647306075659098e-01
3.416125334352311804e-01
3.416125334352311804e-01
3.416125334352311804e-01
3.530760412686281824e-01
3.530760412686281824e-01
3.389377149407718504e-01
3.389377149407718504e-01
3.389377149407718504e-01
3.488727550630492669e-01
3.488727550630492669e-01
3.477264042797095778e-01
3.477264042797095778e-01
3.477264042797095778e-01
3.534581581964080788e-01
3.534581581964080788e-01
3.530760412686281824e-01
3.530760412686281824e-01
3.530760412686281824e-01
3.427588842185708695e-01
3.427588842185708695e-01
3.458158196408100959e-01
3.458158196408100959e-01
3.458158196408100959e-01
3.507833397019488042e-01
3.507833397019488042e-01
3.611004967520061171e-01
3.611004967520061171e-01
3.611004967520061171e-01
3.412304165074512841e-01
3.412304165074512841e-01
3.450515857852503032e-01
3.450515857852503032e-01
3.450515857852503032e-01
3.446694688574704069e-01
3.446694688574704069e-01
3.408482995796713877e-01
3.408482995796713877e-01
3.408482995796713877e-01
3.454337027130301996e-01
3.454337027130301996e-01
3.385555980129919540e-01
3.385555980129919540e-01
3.385555980129919540e-01
3.519296904852884933e-01
3.519296904852884933e-01
3.416125334352311804e-01
3.416125334352311804e-01
3.416125334352311804e-01
3.461979365685899923e-01
3.461979365685899923e-01
3.408482995796713877e-01
3.408482995796713877e-01
3.408482995796713877e-01
3.461979365685899923e-01
3.461979365685899923e-01
3.446694688574704069e-01
3.446694688574704069e-01
3.446694688574704069e-01
3.450515857852503032e-01
3.450515857852503032e-01
3.351165456629728867e-01
3.351165456629728867e-01
3.351165456629728867e-01
3.301490256018341785e-01
3.301490256018341785e-01
3.339701948796331421e-01
3.339701948796331421e-01
3.339701948796331421e-01
3.446694688574704069e-01
3.446694688574704069e-01
3.351165456629728867e-01
3.351165456629728867e-01
3.351165456629728867e-01
3.339701948796331421e-01
3.339701948796331421e-01
3.263278563240351593e-01
3.263278563240351593e-01
3.263278563240351593e-01
3.351165456629728867e-01
3.351165456629728867e-01
3.305311425296140748e-01
3.305311425296140748e-01
3.305311425296140748e-01
3.286205578907145375e-01
3.286205578907145375e-01
3.270920901795949520e-01
3.270920901795949520e-01
3.270920901795949520e-01
3.267099732518150557e-01
3.267099732518150557e-01
3.209782193351165547e-01
3.209782193351165547e-01
3.209782193351165547e-01
3.183034008406572246e-01
3.183034008406572246e-01
3.160106992739778464e-01
3.160106992739778464e-01
3.160106992739778464e-01
3.175391669850974319e-01
3.175391669850974319e-01
3.091325945739396008e-01
3.091325945739396008e-01
3.091325945739396008e-01
3.053114252961406372e-01
3.053114252961406372e-01
3.003439052350019289e-01
3.003439052350019289e-01
3.003439052350019289e-01
2.961406190294230134e-01
2.961406190294230134e-01
2.972869698127627025e-01
2.972869698127627025e-01
2.972869698127627025e-01
2.965227359572029098e-01
2.965227359572029098e-01
3.011081390905617217e-01
3.011081390905617217e-01
3.011081390905617217e-01
2.957585021016431170e-01
2.957585021016431170e-01
2.858234619793657005e-01
2.858234619793657005e-01
2.858234619793657005e-01
2.877340466182651824e-01
2.877340466182651824e-01
2.816201757737867850e-01
2.816201757737867850e-01
2.816201757737867850e-01
2.713030187237294721e-01
2.713030187237294721e-01
2.846771111960260114e-01
2.846771111960260114e-01
2.846771111960260114e-01
2.804738249904470959e-01
2.804738249904470959e-01
2.670997325181505566e-01
2.670997325181505566e-01
2.670997325181505566e-01
2.705387848681696794e-01
2.705387848681696794e-01
2.663354986625907639e-01
2.663354986625907639e-01
2.663354986625907639e-01
2.590752770347726219e-01
2.590752770347726219e-01
2.606037447458922629e-01
2.606037447458922629e-01
2.606037447458922629e-01
2.510508215513947428e-01
2.510508215513947428e-01
2.541077569736339137e-01
2.541077569736339137e-01
2.541077569736339137e-01
2.411157814291172985e-01
2.411157814291172985e-01
2.414978983568972226e-01
2.414978983568972226e-01
2.414978983568972226e-01
2.510508215513947428e-01
2.510508215513947428e-01
2.457011845624761104e-01
2.457011845624761104e-01
2.457011845624761104e-01
2.388230798624378926e-01
2.388230798624378926e-01
2.453190676346962140e-01
2.453190676346962140e-01
2.453190676346962140e-01
2.392051967902178167e-01
2.392051967902178167e-01
2.311807413068398820e-01
2.311807413068398820e-01
2.388230798624378926e-01
2.388230798624378926e-01
2.388230798624378926e-01
2.231562858234619751e-01
2.231562858234619751e-01
2.414978983568972226e-01
2.414978983568972226e-01
2.414978983568972226e-01
2.338555598012991843e-01
2.338555598012991843e-01
2.319449751623997025e-01
2.319449751623997025e-01
2.319449751623997025e-01
2.265953381734810979e-01
2.265953381734810979e-01
2.281238058846006833e-01
2.281238058846006833e-01
2.281238058846006833e-01
2.197172334734428800e-01
2.197172334734428800e-01
2.269774551012609942e-01
2.269774551012609942e-01
2.269774551012609942e-01
2.212457011845624655e-01
2.212457011845624655e-01
2.143675964845242754e-01
2.143675964845242754e-01
2.143675964845242754e-01
2.128391287734046622e-01
2.128391287734046622e-01
2.136033626289644549e-01
2.136033626289644549e-01
2.136033626289644549e-01
2.235384027512418714e-01
2.235384027512418714e-01
2.147497134123041718e-01
2.147497134123041718e-01
2.147497134123041718e-01
2.235384027512418714e-01
2.235384027512418714e-01
2.147497134123041718e-01
2.147497134123041718e-01
2.147497134123041718e-01
2.082537256400458503e-01
2.082537256400458503e-01
2.067252579289262648e-01
2.067252579289262648e-01
2.067252579289262648e-01
2.113106610622850490e-01
2.113106610622850490e-01
2.197172334734428800e-01
2.197172334734428800e-01
2.197172334734428800e-01
2.086358425678257467e-01
2.086358425678257467e-01
2.147497134123041718e-01
2.147497134123041718e-01
2.147497134123041718e-01
2.036683225066870384e-01
2.036683225066870384e-01
2.040504394344669348e-01
2.040504394344669348e-01
2.040504394344669348e-01
2.074894917844860576e-01
2.074894917844860576e-01
2.044325563622468589e-01
2.044325563622468589e-01
2.044325563622468589e-01
2.032862055789071420e-01
2.032862055789071420e-01
2.032862055789071420e-01
2.032862055789071420e-01
2.032862055789071420e-01
2.086358425678257467e-01
2.086358425678257467e-01
2.082537256400458503e-01
2.082537256400458503e-01
2.082537256400458503e-01
2.032862055789071420e-01
2.032862055789071420e-01
2.025219717233473493e-01
2.025219717233473493e-01
2.025219717233473493e-01
2.029040886511272457e-01
2.029040886511272457e-01
1.998471532288880470e-01
1.998471532288880470e-01
1.998471532288880470e-01
2.078716087122659539e-01
2.078716087122659539e-01
1.929690485288498292e-01
1.929690485288498292e-01
1.929690485288498292e-01
2.021398547955674529e-01
2.021398547955674529e-01
2.013756209400076325e-01
2.013756209400076325e-01
2.013756209400076325e-01
1.872372946121513282e-01
1.872372946121513282e-01
1.933511654566297255e-01
1.933511654566297255e-01
1.933511654566297255e-01
1.933511654566297255e-01
1.933511654566297255e-01
1.925869316010699328e-01
1.925869316010699328e-01
1.925869316010699328e-01
1.906763469621704232e-01
1.906763469621704232e-01
1.948796331677493388e-01
1.948796331677493388e-01
1.948796331677493388e-01
1.799770729843332140e-01
1.799770729843332140e-01
1.803591899121131104e-01
1.803591899121131104e-01
1.803591899121131104e-01
1.853267099732518186e-01
1.853267099732518186e-01
1.860909438288116113e-01
1.860909438288116113e-01
1.860909438288116113e-01
1.899121131066106305e-01
1.899121131066106305e-01
1.948796331677493388e-01
1.948796331677493388e-01
1.948796331677493388e-01
1.887657623232709136e-01
1.887657623232709136e-01
1.876194115399312246e-01
1.876194115399312246e-01
1.876194115399312246e-01
1.818876576232326958e-01
1.818876576232326958e-01
1.815055406954527994e-01
1.815055406954527994e-01
1.815055406954527994e-01
1.807413068398930067e-01
1.807413068398930067e-01
1.899121131066106305e-01
1.899121131066106305e-01
1.899121131066106305e-01
1.815055406954527994e-01
1.815055406954527994e-01
1.830340084065724127e-01
1.830340084065724127e-01
1.830340084065724127e-01
1.872372946121513282e-01
1.872372946121513282e-01
1.803591899121131104e-01
1.803591899121131104e-01
1.803591899121131104e-01
1.830340084065724127e-01
1.830340084065724127e-01
1.860909438288116113e-01
1.860909438288116113e-01
1.860909438288116113e-01
1.792128391287733935e-01
1.792128391287733935e-01
1.776843714176538080e-01
1.776843714176538080e-01
1.776843714176538080e-01
1.811234237676729031e-01
1.811234237676729031e-01
1.696599159342759011e-01
1.696599159342759011e-01
1.696599159342759011e-01
1.799770729843332140e-01
1.799770729843332140e-01
1.666029805120366747e-01
1.666029805120366747e-01
1.666029805120366747e-01
1.730989682842949962e-01
1.730989682842949962e-01
1.700420328620557975e-01
1.700420328620557975e-01
1.700420328620557975e-01
1.673672143675964952e-01
1.673672143675964952e-01
1.753916698509744021e-01
1.753916698509744021e-01
1.753916698509744021e-01
1.581964081008788714e-01
1.581964081008788714e-01
1.688956820787160806e-01
1.688956820787160806e-01
1.688956820787160806e-01
1.562858234619793618e-01
1.562858234619793618e-01
1.620175773786778628e-01
1.620175773786778628e-01
1.620175773786778628e-01
1.623996943064577869e-01
1.623996943064577869e-01
1.593427588842185605e-01
1.593427588842185605e-01
1.593427588842185605e-01
1.635460450897974760e-01
1.635460450897974760e-01
1.700420328620557975e-01
1.700420328620557975e-01
1.566679403897592582e-01
1.566679403897592582e-01
1.566679403897592582e-01
1.593427588842185605e-01
1.593427588842185605e-01
1.650745128009170892e-01
1.650745128009170892e-01
1.650745128009170892e-01
1.673672143675964952e-01
1.673672143675964952e-01
1.589606419564386641e-01
1.589606419564386641e-01
1.589606419564386641e-01
1.570500573175391545e-01
1.570500573175391545e-01
1.612533435231180701e-01
1.612533435231180701e-01
1.612533435231180701e-01
1.524646541841803704e-01
1.524646541841803704e-01
1.505540695452808608e-01
1.505540695452808608e-01
1.505540695452808608e-01
1.505540695452808608e-01
1.505540695452808608e-01
1.482613679786014549e-01
1.482613679786014549e-01
1.482613679786014549e-01
1.440580817730225394e-01
1.440580817730225394e-01
1.509361864730607572e-01
1.509361864730607572e-01
1.509361864730607572e-01
1.486434849063813513e-01
1.486434849063813513e-01
1.551394726786396727e-01
1.551394726786396727e-01
1.551394726786396727e-01
1.604891096675582773e-01
1.604891096675582773e-01
1.440580817730225394e-01
1.440580817730225394e-01
1.440580817730225394e-01
1.539931218952999559e-01
1.539931218952999559e-01
1.578142911730989750e-01
1.578142911730989750e-01
1.578142911730989750e-01
1.501719526175009645e-01
1.501719526175009645e-01
1.425296140619029539e-01
1.425296140619029539e-01
1.425296140619029539e-01
1.509361864730607572e-01
1.509361864730607572e-01
1.383263278563240384e-01
1.383263278563240384e-01
1.383263278563240384e-01
1.490256018341612476e-01
1.490256018341612476e-01
1.413832632785632371e-01
1.413832632785632371e-01
1.413832632785632371e-01
1.444401987008024357e-01
1.444401987008024357e-01
1.432938479174627466e-01
1.432938479174627466e-01
1.432938479174627466e-01
1.471150171952617380e-01
1.471150171952617380e-01
1.501719526175009645e-01
1.501719526175009645e-01
1.501719526175009645e-01
1.348872755063049156e-01
1.348872755063049156e-01
1.413832632785632371e-01
1.413832632785632371e-01
1.413832632785632371e-01
1.379442109285441420e-01
1.379442109285441420e-01
1.436759648452426430e-01
1.436759648452426430e-01
1.436759648452426430e-01
1.322124570118456133e-01
1.322124570118456133e-01
1.371799770729843215e-01
1.371799770729843215e-01
1.371799770729843215e-01
1.459686664119220489e-01
1.459686664119220489e-01
1.471150171952617380e-01
1.471150171952617380e-01
1.471150171952617380e-01
1.425296140619029539e-01
1.425296140619029539e-01
1.364157432174245288e-01
1.364157432174245288e-01
1.364157432174245288e-01
1.387084447841039347e-01
1.387084447841039347e-01
1.394726786396637275e-01
1.394726786396637275e-01
1.394726786396637275e-01
1.375620940007642456e-01
1.375620940007642456e-01
1.425296140619029539e-01
1.425296140619029539e-01
1.425296140619029539e-01
1.425296140619029539e-01
1.425296140619029539e-01
1.364157432174245288e-01
1.364157432174245288e-01
1.364157432174245288e-01
1.310661062285059242e-01
1.310661062285059242e-01
1.432938479174627466e-01
1.432938479174627466e-01
1.432938479174627466e-01
1.467329002674818417e-01
1.467329002674818417e-01
1.406190294230034443e-01
1.406190294230034443e-01
1.406190294230034443e-01
1.383263278563240384e-01
1.383263278563240384e-01
1.348872755063049156e-01
1.348872755063049156e-01
1.348872755063049156e-01
1.306839893007260278e-01
1.306839893007260278e-01
1.310661062285059242e-01
1.310661062285059242e-01
1.310661062285059242e-01
1.383263278563240384e-01
1.383263278563240384e-01
1.283912877340466219e-01
1.283912877340466219e-01
1.283912877340466219e-01
1.318303400840657169e-01
1.318303400840657169e-01
1.421474971341230298e-01
1.421474971341230298e-01
1.421474971341230298e-01
1.283912877340466219e-01
1.283912877340466219e-01
1.398547955674436516e-01
1.398547955674436516e-01
1.398547955674436516e-01
1.257164692395873196e-01
1.257164692395873196e-01
1.352693924340848397e-01
1.352693924340848397e-01
1.352693924340848397e-01
1.398547955674436516e-01
1.398547955674436516e-01
1.394726786396637275e-01
1.394726786396637275e-01
1.394726786396637275e-01
1.360336262896446324e-01
1.360336262896446324e-01
1.345051585785250192e-01
1.345051585785250192e-01
1.345051585785250192e-01
1.283912877340466219e-01
1.283912877340466219e-01
1.413832632785632371e-01
1.413832632785632371e-01
1.413832632785632371e-01
1.345051585785250192e-01
1.345051585785250192e-01
1.379442109285441420e-01
1.379442109285441420e-01
1.379442109285441420e-01
1.436759648452426430e-01
1.436759648452426430e-01
1.417653802063431334e-01
1.417653802063431334e-01
1.417653802063431334e-01
1.440580817730225394e-01
1.440580817730225394e-01
1.406190294230034443e-01
1.406190294230034443e-01
1.406190294230034443e-01
1.375620940007642456e-01
1.375620940007642456e-01
1.287734046618265182e-01
1.287734046618265182e-01
1.287734046618265182e-01
1.299197554451662073e-01
1.299197554451662073e-01
1.436759648452426430e-01
1.436759648452426430e-01
1.436759648452426430e-01
1.375620940007642456e-01
1.375620940007642456e-01
1.413832632785632371e-01
1.413832632785632371e-01
1.413832632785632371e-01
1.325945739396255374e-01
1.325945739396255374e-01
1.379442109285441420e-01
1.379442109285441420e-01
1.306839893007260278e-01
1.306839893007260278e-01
1.306839893007260278e-01
1.345051585785250192e-01
1.345051585785250192e-01
1.333588077951853301e-01
1.333588077951853301e-01
1.333588077951853301e-01
1.260985861673672159e-01
1.260985861673672159e-01
1.280091708062667255e-01
1.280091708062667255e-01
1.280091708062667255e-01
1.383263278563240384e-01
1.383263278563240384e-01
1.241880015284677063e-01
1.241880015284677063e-01
1.241880015284677063e-01
1.348872755063049156e-01
1.348872755063049156e-01
1.329766908674054338e-01
1.329766908674054338e-01
1.329766908674054338e-01
1.329766908674054338e-01
1.329766908674054338e-01
1.276270538784868291e-01
1.276270538784868291e-01
1.276270538784868291e-01
1.341230416507451229e-01
1.341230416507451229e-01
1.348872755063049156e-01
1.348872755063049156e-01
1.348872755063049156e-01
1.333588077951853301e-01
1.333588077951853301e-01
1.222774168895682106e-01
1.222774168895682106e-01
1.222774168895682106e-01
1.260985861673672159e-01
1.260985861673672159e-01
1.222774168895682106e-01
1.222774168895682106e-01
1.222774168895682106e-01
1.226595338173481070e-01
1.226595338173481070e-01
1.226595338173481070e-01
1.226595338173481070e-01
1.226595338173481070e-01
1.314482231562858205e-01
1.314482231562858205e-01
1.230416507451280034e-01
1.230416507451280034e-01
1.230416507451280034e-01
1.268628200229270087e-01
1.268628200229270087e-01
1.341230416507451229e-01
1.341230416507451229e-01
1.341230416507451229e-01
1.218952999617883004e-01
1.218952999617883004e-01
1.379442109285441420e-01
1.379442109285441420e-01
1.379442109285441420e-01
1.390905617118838311e-01
1.390905617118838311e-01
1.325945739396255374e-01
1.325945739396255374e-01
1.325945739396255374e-01
1.448223156285823598e-01
1.448223156285823598e-01
1.337409247229652265e-01
1.337409247229652265e-01
1.337409247229652265e-01
1.390905617118838311e-01
1.390905617118838311e-01
1.455865494841421526e-01
1.455865494841421526e-01
1.455865494841421526e-01
1.402369124952235480e-01
1.402369124952235480e-01
1.536110049675200595e-01
1.536110049675200595e-01
1.536110049675200595e-01
1.666029805120366747e-01
1.666029805120366747e-01
1.696599159342759011e-01
1.696599159342759011e-01
1.696599159342759011e-01
1.753916698509744021e-01
1.753916698509744021e-01
1.738632021398547889e-01
1.738632021398547889e-01
1.738632021398547889e-01
1.807413068398930067e-01
1.807413068398930067e-01
1.811234237676729031e-01
1.811234237676729031e-01
1.811234237676729031e-01
1.994650363011081506e-01
1.994650363011081506e-01
2.036683225066870384e-01
2.036683225066870384e-01
2.036683225066870384e-01
2.109285441345051526e-01
2.109285441345051526e-01
2.105464272067252562e-01
2.105464272067252562e-01
2.105464272067252562e-01
2.220099350401222860e-01
2.220099350401222860e-01
2.273595720290408906e-01
2.273595720290408906e-01
2.273595720290408906e-01
2.372946121513183071e-01
2.372946121513183071e-01
2.499044707680550259e-01
2.499044707680550259e-01
2.499044707680550259e-01
2.434084829957967044e-01
2.434084829957967044e-01
2.483760030569354127e-01
2.483760030569354127e-01
2.483760030569354127e-01
2.525792892625143282e-01
2.525792892625143282e-01
2.743599541459686431e-01
2.743599541459686431e-01
2.743599541459686431e-01
2.743599541459686431e-01
2.743599541459686431e-01
2.747420710737485394e-01
2.747420710737485394e-01
2.747420710737485394e-01
2.747420710737485394e-01
2.747420710737485394e-01
2.892625143293847678e-01
2.892625143293847678e-01
2.892625143293847678e-01
2.911730989682843052e-01
2.911730989682843052e-01
3.045471914405808445e-01
3.045471914405808445e-01
3.045471914405808445e-01
2.965227359572029098e-01
2.965227359572029098e-01
3.030187237294612035e-01
3.030187237294612035e-01
3.030187237294612035e-01
3.045471914405808445e-01
3.045471914405808445e-01
3.141001146350783091e-01
3.141001146350783091e-01
3.141001146350783091e-01
3.160106992739778464e-01
3.160106992739778464e-01
3.267099732518150557e-01
3.267099732518150557e-01
3.267099732518150557e-01
3.183034008406572246e-01
3.183034008406572246e-01
3.194497516239969692e-01
3.194497516239969692e-01
3.194497516239969692e-01
3.267099732518150557e-01
3.267099732518150557e-01
3.274742071073748484e-01
3.274742071073748484e-01
3.274742071073748484e-01
3.412304165074512841e-01
3.412304165074512841e-01
3.374092472296522649e-01
3.374092472296522649e-01
3.374092472296522649e-01
3.351165456629728867e-01
3.351165456629728867e-01
3.431410011463507659e-01
3.431410011463507659e-01
3.431410011463507659e-01
3.477264042797095778e-01
3.477264042797095778e-01
3.423767672907909732e-01
3.423767672907909732e-01
3.423767672907909732e-01
3.484906381352693705e-01
3.484906381352693705e-01
3.412304165074512841e-01
3.412304165074512841e-01
3.412304165074512841e-01
3.442873519296905105e-01
3.442873519296905105e-01
3.492548719908292187e-01
3.492548719908292187e-01
3.492548719908292187e-01
3.454337027130301996e-01
3.454337027130301996e-01
3.511654566297287006e-01
3.511654566297287006e-01
3.511654566297287006e-01
3.477264042797095778e-01
3.477264042797095778e-01
3.549866259075277197e-01
3.549866259075277197e-01
3.549866259075277197e-01
3.492548719908292187e-01
3.492548719908292187e-01
3.630110813909055989e-01
3.630110813909055989e-01
3.465800534963698887e-01
3.465800534963698887e-01
3.465800534963698887e-01
3.530760412686281824e-01
3.530760412686281824e-01
3.584256782575467870e-01
3.584256782575467870e-01
3.584256782575467870e-01
3.538402751241879751e-01
3.538402751241879751e-01
3.595720290408865316e-01
3.595720290408865316e-01
3.595720290408865316e-01
3.500191058463890115e-01
3.500191058463890115e-01
3.607183798242262207e-01
3.607183798242262207e-01
3.607183798242262207e-01
3.496369889186091151e-01
3.496369889186091151e-01
3.481085212074894741e-01
3.481085212074894741e-01
3.481085212074894741e-01
3.626289644631257025e-01
3.626289644631257025e-01
3.488727550630492669e-01
3.488727550630492669e-01
3.488727550630492669e-01
3.538402751241879751e-01
3.538402751241879751e-01
3.523118074130683897e-01
3.523118074130683897e-01
3.523118074130683897e-01
3.477264042797095778e-01
3.477264042797095778e-01
3.496369889186091151e-01
3.496369889186091151e-01
3.496369889186091151e-01
3.496369889186091151e-01
3.496369889186091151e-01
3.469621704241497850e-01
3.469621704241497850e-01
3.469621704241497850e-01
3.580435613297668906e-01
3.580435613297668906e-01
3.461979365685899923e-01
3.461979365685899923e-01
3.461979365685899923e-01
3.511654566297287006e-01
3.511654566297287006e-01
3.507833397019488042e-01
3.507833397019488042e-01
3.507833397019488042e-01
3.454337027130301996e-01
3.454337027130301996e-01
3.374092472296522649e-01
3.374092472296522649e-01
3.374092472296522649e-01
3.416125334352311804e-01
3.416125334352311804e-01
3.347344287351929903e-01
3.347344287351929903e-01
3.347344287351929903e-01
3.316774933129537639e-01
3.316774933129537639e-01
3.312953763851738676e-01
3.312953763851738676e-01
3.312953763851738676e-01
3.381734810852120576e-01
3.381734810852120576e-01
3.370271303018723685e-01
3.370271303018723685e-01
3.370271303018723685e-01
3.343523118074130940e-01
3.343523118074130940e-01
3.293847917462743857e-01
3.293847917462743857e-01
3.293847917462743857e-01
3.259457393962552629e-01
3.259457393962552629e-01
3.202139854795567619e-01
3.202139854795567619e-01
3.202139854795567619e-01
3.328238440962934530e-01
3.328238440962934530e-01
3.221245701184562438e-01
3.221245701184562438e-01
3.221245701184562438e-01
3.228888039740160365e-01
3.228888039740160365e-01
3.133358807795185164e-01
3.133358807795185164e-01
3.133358807795185164e-01
3.118074130683989309e-01
3.118074130683989309e-01
3.068398930072602226e-01
3.068398930072602226e-01
3.068398930072602226e-01
2.991975544516621843e-01
2.991975544516621843e-01
3.056935422239205336e-01
3.056935422239205336e-01
3.056935422239205336e-01
3.110431792128391382e-01
3.110431792128391382e-01
3.030187237294612035e-01
3.030187237294612035e-01
3.030187237294612035e-01
3.037829575850209962e-01
3.037829575850209962e-01
2.858234619793657005e-01
2.858234619793657005e-01
2.858234619793657005e-01
2.953763851738632207e-01
2.953763851738632207e-01
2.884982804738249751e-01
2.884982804738249751e-01
2.884982804738249751e-01
2.854413450515858042e-01
2.854413450515858042e-01
2.743599541459686431e-01
2.743599541459686431e-01
2.743599541459686431e-01
2.884982804738249751e-01
2.884982804738249751e-01
2.831486434849063705e-01
2.831486434849063705e-01
2.831486434849063705e-01
2.739778372181887467e-01
2.739778372181887467e-01
2.674818494459304530e-01
2.674818494459304530e-01
2.674818494459304530e-01
2.609858616736721593e-01
2.609858616736721593e-01
2.632785632403515375e-01
2.632785632403515375e-01
2.632785632403515375e-01
2.617500955292319520e-01
2.617500955292319520e-01
2.579289262514329328e-01
2.579289262514329328e-01
2.579289262514329328e-01
2.617500955292319520e-01
2.617500955292319520e-01
2.529614061902942246e-01
2.529614061902942246e-01
2.529614061902942246e-01
2.445548337791364213e-01
2.445548337791364213e-01
2.491402369124952332e-01
2.491402369124952332e-01
2.491402369124952332e-01
2.502865876958349500e-01
2.502865876958349500e-01
2.457011845624761104e-01
2.457011845624761104e-01
2.457011845624761104e-01
2.525792892625143282e-01
2.525792892625143282e-01
2.376767290790982035e-01
2.376767290790982035e-01
2.376767290790982035e-01
2.342376767290791084e-01
2.342376767290791084e-01
2.418800152846771190e-01
2.418800152846771190e-01
2.418800152846771190e-01
2.327092090179594952e-01
2.327092090179594952e-01
2.281238058846006833e-01
2.281238058846006833e-01
2.281238058846006833e-01
2.262132212457011737e-01
2.262132212457011737e-01
2.296522735957202965e-01
2.296522735957202965e-01
2.296522735957202965e-01
2.250668704623614846e-01
2.250668704623614846e-01
2.338555598012991843e-01
2.338555598012991843e-01
2.338555598012991843e-01
2.235384027512418714e-01
2.235384027512418714e-01
2.227741688956820787e-01
2.227741688956820787e-01
2.227741688956820787e-01
2.281238058846006833e-01
2.281238058846006833e-01
2.170424149789835777e-01
2.170424149789835777e-01
2.170424149789835777e-01
2.220099350401222860e-01
2.220099350401222860e-01
2.151318303400840681e-01
2.151318303400840681e-01
2.151318303400840681e-01
2.212457011845624655e-01
2.212457011845624655e-01
2.200993504012227764e-01
2.200993504012227764e-01
2.132212457011845586e-01
2.132212457011845586e-01
2.132212457011845586e-01
2.200993504012227764e-01
2.200993504012227764e-01
2.162781811234237572e-01
2.162781811234237572e-01
2.162781811234237572e-01
2.044325563622468589e-01
2.044325563622468589e-01
2.136033626289644549e-01
2.136033626289644549e-01
2.136033626289644549e-01
2.074894917844860576e-01
2.074894917844860576e-01
2.097821933511654635e-01
2.097821933511654635e-01
2.097821933511654635e-01
2.055789071455865480e-01
2.055789071455865480e-01
2.040504394344669348e-01
2.040504394344669348e-01
2.040504394344669348e-01
2.132212457011845586e-01
2.132212457011845586e-01
2.086358425678257467e-01
2.086358425678257467e-01
2.086358425678257467e-01
2.105464272067252562e-01
2.105464272067252562e-01
2.170424149789835777e-01
2.170424149789835777e-01
2.170424149789835777e-01
2.124570118456247658e-01
2.124570118456247658e-01
2.006113870844478397e-01
2.006113870844478397e-01
2.006113870844478397e-01
2.071073748567061612e-01
2.071073748567061612e-01
1.990829193733282265e-01
1.990829193733282265e-01
1.990829193733282265e-01
1.994650363011081506e-01
1.994650363011081506e-01
1.967902178066488483e-01
1.967902178066488483e-01
1.967902178066488483e-01
1.960259839510890278e-01
1.960259839510890278e-01
1.906763469621704232e-01
1.906763469621704232e-01
1.906763469621704232e-01
1.937332823844096219e-01
1.937332823844096219e-01
2.040504394344669348e-01
2.040504394344669348e-01
2.040504394344669348e-01
1.952617500955292351e-01
1.952617500955292351e-01
1.864730607565915077e-01
1.864730607565915077e-01
1.864730607565915077e-01
1.868551776843714041e-01
1.868551776843714041e-01
1.891478792510508100e-01
1.891478792510508100e-01
1.891478792510508100e-01
1.845624761176920259e-01
1.845624761176920259e-01
1.883836453954910173e-01
1.883836453954910173e-01
1.883836453954910173e-01
1.933511654566297255e-01
1.933511654566297255e-01
1.929690485288498292e-01
1.929690485288498292e-01
1.929690485288498292e-01
1.899121131066106305e-01
1.899121131066106305e-01
1.826518914787925163e-01
1.826518914787925163e-01
1.826518914787925163e-01
1.815055406954527994e-01
1.815055406954527994e-01
1.857088269010317150e-01
1.857088269010317150e-01
1.857088269010317150e-01
1.895299961788307341e-01
1.895299961788307341e-01
1.914405808177302160e-01
1.914405808177302160e-01
1.914405808177302160e-01
1.906763469621704232e-01
1.906763469621704232e-01
1.887657623232709136e-01
1.887657623232709136e-01
1.887657623232709136e-01
1.834161253343523090e-01
1.834161253343523090e-01
1.807413068398930067e-01
1.807413068398930067e-01
1.807413068398930067e-01
1.834161253343523090e-01
1.834161253343523090e-01
1.730989682842949962e-01
1.730989682842949962e-01
1.730989682842949962e-01
1.830340084065724127e-01
1.830340084065724127e-01
1.738632021398547889e-01
1.738632021398547889e-01
1.738632021398547889e-01
1.769201375620939876e-01
1.769201375620939876e-01
1.692777990064959770e-01
1.692777990064959770e-01
1.692777990064959770e-01
1.700420328620557975e-01
1.700420328620557975e-01
1.811234237676729031e-01
1.811234237676729031e-01
1.811234237676729031e-01
1.788307222009934971e-01
1.788307222009934971e-01
1.730989682842949962e-01
1.730989682842949962e-01
1.730989682842949962e-01
1.685135651509361843e-01
1.685135651509361843e-01
1.719526175009552793e-01
1.719526175009552793e-01
1.719526175009552793e-01
1.677493312953763915e-01
1.677493312953763915e-01
1.692777990064959770e-01
1.692777990064959770e-01
1.692777990064959770e-01
1.677493312953763915e-01
1.677493312953763915e-01
1.623996943064577869e-01
1.623996943064577869e-01
1.623996943064577869e-01
1.677493312953763915e-01
1.677493312953763915e-01
1.746274359954146094e-01
1.746274359954146094e-01
1.746274359954146094e-01
1.585785250286587678e-01
1.585785250286587678e-01
1.746274359954146094e-01
1.746274359954146094e-01
1.746274359954146094e-01
1.654566297286969856e-01
1.654566297286969856e-01
1.742453190676346853e-01
1.742453190676346853e-01
1.742453190676346853e-01
1.597248758119984846e-01
1.597248758119984846e-01
1.681314482231562879e-01
1.681314482231562879e-01
1.681314482231562879e-01
1.601069927397783810e-01
1.601069927397783810e-01
1.631639281620175796e-01
1.631639281620175796e-01
1.631639281620175796e-01
1.669850974398165711e-01
1.669850974398165711e-01
1.681314482231562879e-01
1.681314482231562879e-01
1.681314482231562879e-01
1.593427588842185605e-01
1.593427588842185605e-01
1.547573557508597764e-01
1.547573557508597764e-01
1.547573557508597764e-01
1.581964081008788714e-01
1.581964081008788714e-01
1.631639281620175796e-01
1.631639281620175796e-01
1.631639281620175796e-01
1.505540695452808608e-01
1.505540695452808608e-01
1.559037065341994654e-01
1.559037065341994654e-01
1.559037065341994654e-01
1.562858234619793618e-01
1.562858234619793618e-01
1.562858234619793618e-01
1.562858234619793618e-01
1.562858234619793618e-01
1.581964081008788714e-01
1.581964081008788714e-01
1.570500573175391545e-01
1.570500573175391545e-01
1.570500573175391545e-01
1.608712265953381737e-01
1.608712265953381737e-01
1.669850974398165711e-01
1.669850974398165711e-01
1.669850974398165711e-01
1.536110049675200595e-01
1.536110049675200595e-01
1.490256018341612476e-01
1.490256018341612476e-01
1.490256018341612476e-01
1.490256018341612476e-01
1.490256018341612476e-01
1.486434849063813513e-01
1.486434849063813513e-01
1.593427588842185605e-01
1.593427588842185605e-01
1.593427588842185605e-01
1.562858234619793618e-01
1.562858234619793618e-01
1.593427588842185605e-01
1.593427588842185605e-01
1.593427588842185605e-01
1.562858234619793618e-01
1.562858234619793618e-01
1.448223156285823598e-01
1.448223156285823598e-01
1.448223156285823598e-01
1.570500573175391545e-01
1.570500573175391545e-01
1.486434849063813513e-01
1.486434849063813513e-01
1.486434849063813513e-01
1.455865494841421526e-01
1.455865494841421526e-01
1.490256018341612476e-01
1.490256018341612476e-01
1.490256018341612476e-01
1.509361864730607572e-01
1.509361864730607572e-01
1.440580817730225394e-01
1.440580817730225394e-01
1.440580817730225394e-01
1.520825372564004463e-01
1.520825372564004463e-01
1.601069927397783810e-01
1.601069927397783810e-01
1.601069927397783810e-01
1.463507833397019453e-01
1.463507833397019453e-01
1.463507833397019453e-01
1.463507833397019453e-01
1.463507833397019453e-01
1.513183034008406536e-01
1.513183034008406536e-01
1.543752388230798522e-01
1.543752388230798522e-01
1.543752388230798522e-01
1.406190294230034443e-01
1.406190294230034443e-01
1.494077187619411440e-01
1.494077187619411440e-01
1.494077187619411440e-01
1.555215896064195691e-01
1.555215896064195691e-01
1.440580817730225394e-01
1.440580817730225394e-01
1.440580817730225394e-01
1.505540695452808608e-01
1.505540695452808608e-01
1.543752388230798522e-01
1.543752388230798522e-01
1.543752388230798522e-01
1.398547955674436516e-01
1.398547955674436516e-01
1.539931218952999559e-01
1.539931218952999559e-01
1.539931218952999559e-01
1.429117309896828503e-01
1.429117309896828503e-01
1.490256018341612476e-01
1.490256018341612476e-01
1.490256018341612476e-01
1.543752388230798522e-01
1.543752388230798522e-01
1.482613679786014549e-01
1.482613679786014549e-01
1.482613679786014549e-01
1.474971341230416622e-01
1.474971341230416622e-01
1.444401987008024357e-01
1.444401987008024357e-01
1.444401987008024357e-01
1.494077187619411440e-01
1.494077187619411440e-01
1.490256018341612476e-01
1.490256018341612476e-01
1.490256018341612476e-01
1.539931218952999559e-01
1.539931218952999559e-01
1.440580817730225394e-01
1.440580817730225394e-01
1.440580817730225394e-01
1.413832632785632371e-01
1.413832632785632371e-01
1.497898356897210681e-01
1.497898356897210681e-01
1.497898356897210681e-01
1.429117309896828503e-01
1.429117309896828503e-01
1.406190294230034443e-01
1.406190294230034443e-01
1.406190294230034443e-01
1.387084447841039347e-01
1.387084447841039347e-01
1.463507833397019453e-01
1.463507833397019453e-01
1.463507833397019453e-01
1.494077187619411440e-01
1.494077187619411440e-01
1.371799770729843215e-01
1.371799770729843215e-01
1.371799770729843215e-01
1.387084447841039347e-01
1.387084447841039347e-01
1.352693924340848397e-01
1.352693924340848397e-01
1.352693924340848397e-01
1.486434849063813513e-01
1.486434849063813513e-01
1.379442109285441420e-01
1.379442109285441420e-01
1.379442109285441420e-01
1.383263278563240384e-01
1.383263278563240384e-01
1.482613679786014549e-01
1.482613679786014549e-01
1.482613679786014549e-01
1.406190294230034443e-01
1.406190294230034443e-01
1.497898356897210681e-01
1.497898356897210681e-01
1.497898356897210681e-01
1.367978601452044252e-01
1.367978601452044252e-01
1.379442109285441420e-01
1.379442109285441420e-01
1.379442109285441420e-01
1.413832632785632371e-01
1.413832632785632371e-01
1.455865494841421526e-01
1.455865494841421526e-01
1.455865494841421526e-01
1.432938479174627466e-01
1.432938479174627466e-01
1.390905617118838311e-01
1.390905617118838311e-01
1.390905617118838311e-01
1.452044325563622562e-01
1.452044325563622562e-01
1.410011463507833407e-01
1.410011463507833407e-01
1.410011463507833407e-01
1.421474971341230298e-01
1.421474971341230298e-01
1.425296140619029539e-01
1.425296140619029539e-01
1.425296140619029539e-01
1.417653802063431334e-01
1.417653802063431334e-01
1.486434849063813513e-01
1.486434849063813513e-01
1.486434849063813513e-01
1.364157432174245288e-01
1.364157432174245288e-01
1.341230416507451229e-01
1.341230416507451229e-01
1.341230416507451229e-01
1.413832632785632371e-01
1.413832632785632371e-01
1.410011463507833407e-01
1.410011463507833407e-01
1.410011463507833407e-01
1.333588077951853301e-01
1.333588077951853301e-01
1.432938479174627466e-01
1.432938479174627466e-01
1.432938479174627466e-01
1.283912877340466219e-01
1.283912877340466219e-01
1.268628200229270087e-01
1.268628200229270087e-01
1.268628200229270087e-01
1.291555215896064146e-01
1.291555215896064146e-01
1.375620940007642456e-01
1.375620940007642456e-01
1.375620940007642456e-01
1.264807030951471123e-01
1.264807030951471123e-01
1.272449369507069050e-01
1.272449369507069050e-01
1.272449369507069050e-01
1.253343523118074232e-01
1.253343523118074232e-01
1.367978601452044252e-01
1.367978601452044252e-01
1.367978601452044252e-01
1.322124570118456133e-01
1.322124570118456133e-01
1.215131830340084040e-01
1.215131830340084040e-01
1.333588077951853301e-01
1.333588077951853301e-01
1.333588077951853301e-01
1.268628200229270087e-01
1.268628200229270087e-01
1.260985861673672159e-01
1.260985861673672159e-01
1.260985861673672159e-01
1.314482231562858205e-01
1.314482231562858205e-01
1.249522353840275130e-01
1.249522353840275130e-01
1.249522353840275130e-01
1.360336262896446324e-01
1.360336262896446324e-01
1.364157432174245288e-01
1.364157432174245288e-01
1.364157432174245288e-01
1.467329002674818417e-01
1.467329002674818417e-01
1.421474971341230298e-01
1.421474971341230298e-01
1.421474971341230298e-01
1.440580817730225394e-01
1.440580817730225394e-01
1.417653802063431334e-01
1.417653802063431334e-01
1.417653802063431334e-01
1.497898356897210681e-01
1.497898356897210681e-01
1.494077187619411440e-01
1.494077187619411440e-01
1.494077187619411440e-01
1.509361864730607572e-01
1.509361864730607572e-01
1.623996943064577869e-01
1.623996943064577869e-01
1.623996943064577869e-01
1.677493312953763915e-01
1.677493312953763915e-01
1.673672143675964952e-01
1.673672143675964952e-01
1.673672143675964952e-01
1.746274359954146094e-01
1.746274359954146094e-01
1.730989682842949962e-01
1.730989682842949962e-01
1.730989682842949962e-01
1.975544516622086411e-01
1.975544516622086411e-01
1.834161253343523090e-01
1.834161253343523090e-01
1.834161253343523090e-01
2.006113870844478397e-01
2.006113870844478397e-01
1.941153993121895183e-01
1.941153993121895183e-01
1.941153993121895183e-01
2.067252579289262648e-01
2.067252579289262648e-01
2.174245319067634741e-01
2.174245319067634741e-01
2.174245319067634741e-01
2.258311043179212774e-01
2.258311043179212774e-01
2.369124952235384107e-01
2.369124952235384107e-01
2.369124952235384107e-01
2.330913259457393916e-01
2.330913259457393916e-01
2.403515475735575058e-01
2.403515475735575058e-01
2.403515475735575058e-01
2.514329384791746391e-01
2.514329384791746391e-01
2.541077569736339137e-01
2.541077569736339137e-01
2.541077569736339137e-01
2.460833014902560067e-01
2.460833014902560067e-01
2.648070309514711229e-01
2.648070309514711229e-01
2.648070309514711229e-01
2.602216278181123665e-01
2.602216278181123665e-01
2.670997325181505566e-01
2.670997325181505566e-01
2.670997325181505566e-01
2.686282002292701421e-01
2.686282002292701421e-01
2.755063049293083877e-01
2.755063049293083877e-01
2.755063049293083877e-01
2.846771111960260114e-01
2.846771111960260114e-01
2.850592281238059078e-01
2.850592281238059078e-01
2.850592281238059078e-01
2.865876958349254933e-01
2.865876958349254933e-01
2.907909820405044088e-01
2.907909820405044088e-01
2.907909820405044088e-01
3.022544898739014108e-01
3.022544898739014108e-01
3.049293083683607408e-01
3.049293083683607408e-01
3.049293083683607408e-01
3.091325945739396008e-01
3.091325945739396008e-01
3.121895299961788273e-01
3.121895299961788273e-01
3.121895299961788273e-01
3.133358807795185164e-01
3.133358807795185164e-01
3.133358807795185164e-01
3.133358807795185164e-01
3.133358807795185164e-01
3.095147115017195527e-01
3.095147115017195527e-01
3.091325945739396008e-01
3.091325945739396008e-01
3.091325945739396008e-01
3.163928162017577428e-01
3.163928162017577428e-01
3.228888039740160365e-01
3.228888039740160365e-01
3.228888039740160365e-01
3.225066870462361401e-01
3.225066870462361401e-01
3.247993886129155738e-01
3.247993886129155738e-01
3.247993886129155738e-01
3.286205578907145375e-01
3.286205578907145375e-01
3.240351547573557256e-01
3.240351547573557256e-01
3.240351547573557256e-01
3.286205578907145375e-01
3.286205578907145375e-01
3.290026748184944339e-01
3.290026748184944339e-01
3.290026748184944339e-01
3.332059610240733494e-01
3.332059610240733494e-01
3.286205578907145375e-01
3.286205578907145375e-01
3.286205578907145375e-01
3.351165456629728867e-01
3.351165456629728867e-01
3.301490256018341785e-01
3.301490256018341785e-01
3.301490256018341785e-01
3.335880779518532457e-01
3.335880779518532457e-01
3.427588842185708695e-01
3.427588842185708695e-01
3.427588842185708695e-01
3.389377149407718504e-01
3.389377149407718504e-01
3.393198318685518022e-01
3.393198318685518022e-01
3.393198318685518022e-01
3.381734810852120576e-01
3.381734810852120576e-01
3.297669086740542821e-01
3.297669086740542821e-01
3.297669086740542821e-01
3.385555980129919540e-01
3.385555980129919540e-01
3.419946503630110768e-01
3.419946503630110768e-01
3.419946503630110768e-01
3.427588842185708695e-01
3.427588842185708695e-01
3.427588842185708695e-01
3.427588842185708695e-01
3.427588842185708695e-01
3.332059610240733494e-01
3.332059610240733494e-01
3.305311425296140748e-01
3.305311425296140748e-01
3.305311425296140748e-01
3.305311425296140748e-01
3.305311425296140748e-01
3.339701948796331421e-01
3.339701948796331421e-01
3.339701948796331421e-01
3.347344287351929903e-01
3.347344287351929903e-01
3.412304165074512841e-01
3.412304165074512841e-01
3.412304165074512841e-01
3.427588842185708695e-01
3.427588842185708695e-01
3.397019487963316986e-01
3.397019487963316986e-01
3.397019487963316986e-01
3.332059610240733494e-01
3.332059610240733494e-01
3.290026748184944339e-01
3.290026748184944339e-01
3.320596102407336603e-01
3.320596102407336603e-01
3.320596102407336603e-01
3.370271303018723685e-01
3.370271303018723685e-01
3.339701948796331421e-01
3.339701948796331421e-01
3.339701948796331421e-01
3.339701948796331421e-01
3.339701948796331421e-01
3.209782193351165547e-01
3.209782193351165547e-01
3.209782193351165547e-01
3.286205578907145375e-01
3.286205578907145375e-01
3.335880779518532457e-01
3.335880779518532457e-01
3.335880779518532457e-01
3.225066870462361401e-01
3.225066870462361401e-01
3.236530378295758292e-01
3.236530378295758292e-01
3.236530378295758292e-01
3.247993886129155738e-01
3.247993886129155738e-01
3.205961024073366583e-01
3.205961024073366583e-01
3.205961024073366583e-01
3.183034008406572246e-01
3.183034008406572246e-01
3.274742071073748484e-01
