2.078716087122659539e-01
2.403515475735575058e-01
2.403515475735575058e-01
2.353840275124187975e-01
2.094000764233855671e-01
2.384409629346579962e-01
1.956438670233091315e-01
2.277416889568207869e-01
2.296522735957202965e-01
2.189529996178830595e-01
1.883836453954910173e-01
2.281238058846006833e-01
2.124570118456247658e-01
1.899121131066106305e-01
1.914405808177302160e-01
1.944975162399694424e-01
1.990829193733282265e-01
2.369124952235384107e-01
1.990829193733282265e-01
1.987008024455483302e-01
2.006113870844478397e-01
2.067252579289262648e-01
2.166602980512036813e-01
2.051967902178066516e-01
2.002292701566679434e-01
2.032862055789071420e-01
2.262132212457011737e-01
2.128391287734046622e-01
2.174245319067634741e-01
1.880015284677111209e-01
2.051967902178066516e-01
1.872372946121513282e-01
2.204814673290026728e-01
1.883836453954910173e-01
2.292701566679404002e-01
2.246847535345815883e-01
2.071073748567061612e-01
2.048146732900267553e-01
2.342376767290791084e-01
2.338555598012991843e-01
2.124570118456247658e-01
2.109285441345051526e-01
2.445548337791364213e-01
2.342376767290791084e-01
2.097821933511654635e-01
2.376767290790982035e-01
2.200993504012227764e-01
2.281238058846006833e-01
2.491402369124952332e-01
2.403515475735575058e-01
2.262132212457011737e-01
2.388230798624378926e-01
2.403515475735575058e-01
2.724493695070691612e-01
2.407336645013374021e-01
2.816201757737867850e-01
2.892625143293847678e-01
2.862055789071455969e-01
2.923194497516239942e-01
3.045471914405808445e-01
3.121895299961788273e-01
3.186855177684371210e-01
3.259457393962552629e-01
3.152464654184180537e-01
2.969048528849828061e-01
3.152464654184180537e-01
3.458158196408100959e-01
3.538402751241879751e-01
3.488727550630492669e-01
3.576614444019869943e-01
3.397019487963316986e-01
3.504012227741689078e-01
3.748567061520825527e-01
4.023691249522353686e-01
3.744745892243026564e-01
4.145968666411922188e-01
4.359954145968666372e-01
4.084829957967138214e-01
4.508979747802827620e-01
4.554833779136415739e-01
4.707680550248375950e-01
4.405808177302254491e-01
4.604508979747802822e-01
4.768819258693159924e-01
5.074512800917080346e-01
4.761176920137561996e-01
4.833779136415743416e-01
4.971341230416507218e-01
5.273213603362628676e-01
5.429881543752388406e-01
5.598012991975545027e-01
5.322888803974016314e-01
5.368742835307603878e-01
5.517768437141765681e-01
5.598012991975545027e-01
6.087122659533816815e-01
5.827283148643485067e-01
5.949560565533053014e-01
6.346962170424149674e-01
6.194115399312190018e-01
6.545662972869698004e-01
6.637371035536874242e-01
6.499808941536110440e-01
6.434849063813526948e-01
6.515093618647306295e-01
6.606801681314482533e-01
6.820787160871226718e-01
6.633549866259075278e-01
6.836071837982422572e-01
6.786396637371036045e-01
7.034772640427970902e-01
7.309896828429499616e-01
7.294612151318303761e-01
7.080626671761559576e-01
7.202904088651127523e-01
7.218188765762323378e-01
7.416889568207871708e-01
7.783721818876576659e-01
7.615590370653420038e-01
7.642338555598012784e-01
7.569736339319831364e-01
7.672907909820404493e-01
7.661444401987007602e-01
7.646159724875811747e-01
7.646159724875811747e-01
7.661444401987007602e-01
7.707298433320596276e-01
7.856324035154756968e-01
7.779900649598777695e-01
8.074130683989301227e-01
7.844860527321360077e-01
7.875429881543752897e-01
8.226977455101260883e-01
7.905999235766144606e-01
7.982422621322124989e-01
7.963316774933129061e-01
8.425678257546809213e-01
8.058846006878104262e-01
8.395108903324417504e-01
8.272831486434849557e-01
8.131448223156285682e-01
8.486816965991593742e-01
8.272831486434849557e-01
8.467711119602598924e-01
8.475353458158196851e-01
8.028276652655712553e-01
8.337791364157431939e-01
8.154375238823079464e-01
8.028276652655712553e-01
8.284294994268246448e-01
8.177302254489874356e-01
8.055024837600305299e-01
8.135269392434084645e-01
8.196408100878869174e-01
7.951853267099732170e-01
8.211692777990065029e-01
7.963316774933129061e-01
8.028276652655712553e-01
8.226977455101260883e-01
8.104700038211692936e-01
8.043561329766908408e-01
8.012991975544516698e-01
8.303400840657241266e-01
8.150554069545280500e-01
7.982422621322124989e-01
7.982422621322124989e-01
7.905999235766144606e-01
7.764615972487580731e-01
8.024455483377913589e-01
7.569736339319831364e-01
7.875429881543752897e-01
7.886893389377149788e-01
7.535345815819640691e-01
7.554451662208635510e-01
7.565915170042032400e-01
7.756973633931982803e-01
7.554451662208635510e-01
7.825754680932365259e-01
7.768437141765379694e-01
7.630875047764615893e-01
7.795185326709973550e-01
7.814291173098968368e-01
7.416889568207871708e-01
7.290790982040504797e-01
7.386320213985479999e-01
7.229652273595720269e-01
7.172334734428734704e-01
7.294612151318303761e-01
7.248758119984715087e-01
7.092090179594956467e-01
7.015666794038976084e-01
7.015666794038976084e-01
7.004203286205579193e-01
7.111196025983951285e-01
7.187619411539931669e-01
7.325181505540695470e-01
7.371035536874283034e-01
7.065341994650362611e-01
7.309896828429499616e-01
7.325181505540695470e-01
7.233473442873519232e-01
6.897210546427207101e-01
6.866641192204814281e-01
6.744363775315246334e-01
6.816965991593427754e-01
6.694688574703859807e-01
6.771111960259839080e-01
6.805502483760030863e-01
6.576232327092089713e-01
6.958349254871990519e-01
6.927779900649598810e-01
6.729079098204050480e-01
6.713794421092854625e-01
6.526557126480703186e-01
6.683225066870462916e-01
6.881925869316011246e-01
6.801681314482231899e-01
6.805502483760030863e-01
6.755827283148643225e-01
6.836071837982422572e-01
6.694688574703859807e-01
6.790217806648835008e-01
6.515093618647306295e-01
6.408100878868934203e-01
6.683225066870462916e-01
6.236148261367978618e-01
6.633549866259075278e-01
6.576232327092089713e-01
6.526557126480703186e-01
6.224684753534581727e-01
6.469239587313717621e-01
6.148261367978601344e-01
6.438670233091325912e-01
6.438670233091325912e-01
6.442491402369124875e-01
6.148261367978601344e-01
6.388995032479939384e-01
6.255254107756973436e-01
6.560947649980893859e-01
6.132976690867405489e-01
6.438670233091325912e-01
6.331677493312953819e-01
6.006878104700038579e-01
5.995414596866641688e-01
6.025983951089033397e-01
5.995414596866641688e-01
6.010699273977837542e-01
5.827283148643485067e-01
5.831104317921284030e-01
6.132976690867405489e-01
6.087122659533816815e-01
5.792892625143294394e-01
6.083301490256017852e-01
6.010699273977837542e-01
5.750859763087504684e-01
5.964845242644248868e-01
5.811998471532289212e-01
5.976308750477645759e-01
6.010699273977837542e-01
5.731753916698509865e-01
5.899885364921666486e-01
5.647688192586931555e-01
5.598012991975545027e-01
5.563622468475353244e-01
5.781429117309896393e-01
5.464272067252579079e-01
5.808177302254490249e-01
5.643867023309132591e-01
5.307604126862820459e-01
5.460450897974780116e-01
5.655330531142529482e-01
5.307604126862820459e-01
5.613297669086740882e-01
5.261750095529231785e-01
5.246465418418035931e-01
5.533053114252961535e-01
5.460450897974780116e-01
5.334352311807413205e-01
5.368742835307603878e-01
5.124188001528467984e-01
5.399312189529996697e-01
5.322888803974016314e-01
5.399312189529996697e-01
5.078333970194879310e-01
5.074512800917080346e-01
5.288498280473824531e-01
5.108903324417272129e-01
5.108903324417272129e-01
5.227359572029041113e-01
4.818494459304547006e-01
4.849063813526939271e-01
5.047764615972487601e-01
4.952235384027512399e-01
4.791746274359954261e-01
5.120366832250669020e-01
4.711501719526174914e-01
4.967520061138708254e-01
4.814673290026748043e-01
5.078333970194879310e-01
4.986625907527703627e-01
4.742071073748567178e-01
4.619793656858998676e-01
4.665647688192586795e-01
4.921666029805120135e-01
4.845242644249140307e-01
4.833779136415743416e-01
4.738249904470768215e-01
4.493695070691631765e-01
4.615972487581199712e-01
4.386702330913259673e-01
4.726786396637370768e-01
4.692395873137180096e-01
4.421092854413450346e-01
4.421092854413450346e-01
4.730607565915170287e-01
4.818494459304547006e-01
4.631257164692396122e-01
4.726786396637370768e-01
4.543370271303018848e-01
4.497516239969430729e-01
4.661826518914787831e-01
4.757355750859763033e-01
4.421092854413450346e-01
4.325563622468475145e-01
4.589224302636606967e-01
4.340848299579671554e-01
4.237676729079098426e-01
4.493695070691631765e-01
4.340848299579671554e-01
4.359954145968666372e-01
4.191822697745510307e-01
4.570118456247611594e-01
4.444019870080244683e-01
4.650363011081390940e-01
4.356132976690867409e-01
4.432556362246847792e-01
4.631257164692396122e-01
4.417271685135651382e-01
4.558654948414214703e-01
4.512800917080626584e-01
4.650363011081390940e-01
4.650363011081390940e-01
4.573939625525410557e-01
4.677111196025983686e-01
4.294994268246083435e-01
4.241497898356897389e-01
4.359954145968666372e-01
4.604508979747802822e-01
4.203286205578907198e-01
4.356132976690867409e-01
4.344669468857470518e-01
4.665647688192586795e-01
4.451662208635842610e-01
4.677111196025983686e-01
4.696217042414979059e-01
4.757355750859763033e-01
4.692395873137180096e-01
4.619793656858998676e-01
4.482231562858234875e-01
4.604508979747802822e-01
4.390523500191058637e-01
4.742071073748567178e-01
4.635078333970195086e-01
4.543370271303018848e-01
4.619793656858998676e-01
4.680932365303783205e-01
4.631257164692396122e-01
4.417271685135651382e-01
4.650363011081390940e-01
4.401987008024455528e-01
4.421092854413450346e-01
4.314100114635078254e-01
4.325563622468475145e-01
4.421092854413450346e-01
4.390523500191058637e-01
4.707680550248375950e-01
4.577760794803209521e-01
4.539549102025219884e-01
4.451662208635842610e-01
4.558654948414214703e-01
4.539549102025219884e-01
4.405808177302254491e-01
4.352311807413068445e-01
4.512800917080626584e-01
4.344669468857470518e-01
4.306457776079480326e-01
4.711501719526174914e-01
4.390523500191058637e-01
4.478410393580435356e-01
4.283530760412686544e-01
4.558654948414214703e-01
4.466946885747038465e-01
4.279709591134887026e-01
4.665647688192586795e-01
4.390523500191058637e-01
4.615972487581199712e-01
4.738249904470768215e-01
4.482231562858234875e-01
4.421092854413450346e-01
4.726786396637370768e-01
4.707680550248375950e-01
4.631257164692396122e-01
4.631257164692396122e-01
4.344669468857470518e-01
4.237676729079098426e-01
4.612151318303400749e-01
4.310278945357279290e-01
4.145968666411922188e-01
4.161253343523118042e-01
4.222392051967902016e-01
4.390523500191058637e-01
4.356132976690867409e-01
4.344669468857470518e-01
4.126862820022926814e-01
4.386702330913259673e-01
4.482231562858234875e-01
4.371417653802063263e-01
4.279709591134887026e-01
4.218570882690103052e-01
4.176538020634313897e-01
4.325563622468475145e-01
4.172716851356514933e-01
4.283530760412686544e-01
4.333205961024073627e-01
4.157432174245319079e-01
4.145968666411922188e-01
4.115399312189529923e-01
4.019870080244554722e-01
3.947267863966373858e-01
4.283530760412686544e-01
4.252961406190294280e-01
4.310278945357279290e-01
4.023691249522353686e-01
4.069545280855941805e-01
4.294994268246083435e-01
3.901413832632785739e-01
4.191822697745510307e-01
4.176538020634313897e-01
4.161253343523118042e-01
4.268246083301490135e-01
4.237676729079098426e-01
4.218570882690103052e-01
4.081008788689338695e-01
4.069545280855941805e-01
3.729461215131830154e-01
3.809705769965609501e-01
4.008406572411157831e-01
3.729461215131830154e-01
3.931983186855177448e-01
3.993121895299961976e-01
3.672143675964845144e-01
3.916698509743981593e-01
3.714176538020634299e-01
3.595720290408865316e-01
3.729461215131830154e-01
4.023691249522353686e-01
3.591899121131066352e-01
3.897592663354986775e-01
3.962552541077569712e-01
3.717997707298433263e-01
3.611004967520061171e-01
3.611004967520061171e-01
3.794421092854413646e-01
3.779136415743217237e-01
3.454337027130301996e-01
3.412304165074512841e-01
3.565150936186473052e-01
3.377913641574321613e-01
3.549866259075277197e-01
3.641574321742453435e-01
3.320596102407336603e-01
3.274742071073748484e-01
3.255636224684753666e-01
3.259457393962552629e-01
3.530760412686281824e-01
3.290026748184944339e-01
3.423767672907909732e-01
3.656858998853649290e-01
3.351165456629728867e-01
3.653037829575850326e-01
3.316774933129537639e-01
3.305311425296140748e-01
3.561329766908674088e-01
3.347344287351929903e-01
3.076041268628200154e-01
3.381734810852120576e-01
3.030187237294612035e-01
3.167749331295376392e-01
3.148643484906381573e-01
3.320596102407336603e-01
3.072220099350401190e-01
3.362628964463125758e-01
3.045471914405808445e-01
2.980512036683224952e-01
3.377913641574321613e-01
3.076041268628200154e-01
3.225066870462361401e-01
2.999617883072220326e-01
3.270920901795949520e-01
2.949942682460833243e-01
3.290026748184944339e-01
3.316774933129537639e-01
3.091325945739396008e-01
3.137179977072984127e-01
3.198318685517768656e-01
3.011081390905617217e-01
2.965227359572029098e-01
2.770347726404279731e-01
2.785632403515475586e-01
2.751241880015284913e-01
2.800917080626671996e-01
2.678639663737103493e-01
3.091325945739396008e-01
3.060756591517004299e-01
2.674818494459304530e-01
3.041650745128008926e-01
2.907909820405044088e-01
2.663354986625907639e-01
3.091325945739396008e-01
2.812380588460068886e-01
2.693924340848299348e-01
3.091325945739396008e-01
3.045471914405808445e-01
2.812380588460068886e-01
2.923194497516239942e-01
2.632785632403515375e-01
2.583110431792128292e-01
2.827665265571264741e-01
2.827665265571264741e-01
2.831486434849063705e-01
2.567825754680932437e-01
2.479938861291555163e-01
2.892625143293847678e-01
2.617500955292319520e-01
2.521971723347344319e-01
2.552541077569736583e-01
2.907909820405044088e-01
2.800917080626671996e-01
2.862055789071455969e-01
2.659533817348108675e-01
2.709209017959495758e-01
2.548719908291937064e-01
2.693924340848299348e-01
2.525792892625143282e-01
2.388230798624378926e-01
2.372946121513183071e-01
2.399694306457776094e-01
2.617500955292319520e-01
2.755063049293083877e-01
2.735957202904088503e-01
2.311807413068398820e-01
2.491402369124952332e-01
2.449369507069163177e-01
2.506687046236148464e-01
2.460833014902560067e-01
2.479938861291555163e-01
2.403515475735575058e-01
2.720672525792892649e-01
2.464654184180359309e-01
2.541077569736339137e-01
2.560183416125334510e-01
2.602216278181123665e-01
2.327092090179594952e-01
2.464654184180359309e-01
2.414978983568972226e-01
2.353840275124187975e-01
2.510508215513947428e-01
2.453190676346962140e-01
2.690103171570500384e-01
2.571646923958731401e-01
2.586931601069927256e-01
2.235384027512418714e-01
2.476117692013756200e-01
2.613679786014520556e-01
2.281238058846006833e-01
2.720672525792892649e-01
2.353840275124187975e-01
2.751241880015284913e-01
2.541077569736339137e-01
2.693924340848299348e-01
2.552541077569736583e-01
2.246847535345815883e-01
2.495223538402751295e-01
2.628964463125716411e-01
2.200993504012227764e-01
2.281238058846006833e-01
2.430263660680168081e-01
2.445548337791364213e-01
2.464654184180359309e-01
2.476117692013756200e-01
2.262132212457011737e-01
2.174245319067634741e-01
2.521971723347344319e-01
2.185708826901031632e-01
2.204814673290026728e-01
2.430263660680168081e-01
2.418800152846771190e-01
2.216278181123423896e-01
2.495223538402751295e-01
2.330913259457393916e-01
2.220099350401222860e-01
2.376767290790982035e-01
2.506687046236148464e-01
2.449369507069163177e-01
2.128391287734046622e-01
2.495223538402751295e-01
2.414978983568972226e-01
2.174245319067634741e-01
2.491402369124952332e-01
2.204814673290026728e-01
2.342376767290791084e-01
2.174245319067634741e-01
2.521971723347344319e-01
2.155139472678639645e-01
2.372946121513183071e-01
2.281238058846006833e-01
2.510508215513947428e-01
2.296522735957202965e-01
2.281238058846006833e-01
2.602216278181123665e-01
2.155139472678639645e-01
2.189529996178830595e-01
2.491402369124952332e-01
2.372946121513183071e-01
2.139854795567443513e-01
2.311807413068398820e-01
2.285059228123805797e-01
2.307986243790599856e-01
2.051967902178066516e-01
2.399694306457776094e-01
2.418800152846771190e-01
2.434084829957967044e-01
2.495223538402751295e-01
2.204814673290026728e-01
2.445548337791364213e-01
2.476117692013756200e-01
2.212457011845624655e-01
2.128391287734046622e-01
2.128391287734046622e-01
2.231562858234619751e-01
2.495223538402751295e-01
2.560183416125334510e-01
2.082537256400458503e-01
2.491402369124952332e-01
2.109285441345051526e-01
2.430263660680168081e-01
2.342376767290791084e-01
2.063431410011463407e-01
2.418800152846771190e-01
2.265953381734810979e-01
2.235384027512418714e-01
2.418800152846771190e-01
2.369124952235384107e-01
2.048146732900267553e-01
2.449369507069163177e-01
2.128391287734046622e-01
2.296522735957202965e-01
2.506687046236148464e-01
2.541077569736339137e-01
2.327092090179594952e-01
2.185708826901031632e-01
2.128391287734046622e-01
2.155139472678639645e-01
2.307986243790599856e-01
2.071073748567061612e-01
2.204814673290026728e-01
1.975544516622086411e-01
2.036683225066870384e-01
2.082537256400458503e-01
2.204814673290026728e-01
2.250668704623614846e-01
2.327092090179594952e-01
2.246847535345815883e-01
2.434084829957967044e-01
2.357661444401986939e-01
2.353840275124187975e-01
2.063431410011463407e-01
2.445548337791364213e-01
2.418800152846771190e-01
2.036683225066870384e-01
2.372946121513183071e-01
2.082537256400458503e-01
2.296522735957202965e-01
2.388230798624378926e-01
1.960259839510890278e-01
2.013756209400076325e-01
2.128391287734046622e-01
1.975544516622086411e-01
2.155139472678639645e-01
1.975544516622086411e-01
2.281238058846006833e-01
2.006113870844478397e-01
2.128391287734046622e-01
1.990829193733282265e-01
2.281238058846006833e-01
2.307986243790599856e-01
2.021398547955674529e-01
2.235384027512418714e-01
2.296522735957202965e-01
1.960259839510890278e-01
2.292701566679404002e-01
2.327092090179594952e-01
1.975544516622086411e-01
2.139854795567443513e-01
1.998471532288880470e-01
2.158960641956438609e-01
1.818876576232326958e-01
2.220099350401222860e-01
1.837982422621322054e-01
2.189529996178830595e-01
1.849445930454719222e-01
2.220099350401222860e-01
1.868551776843714041e-01
1.925869316010699328e-01
2.307986243790599856e-01
1.910584638899503196e-01
2.189529996178830595e-01
2.311807413068398820e-01
2.036683225066870384e-01
1.975544516622086411e-01
2.265953381734810979e-01
2.032862055789071420e-01
1.849445930454719222e-01
2.265953381734810979e-01
1.837982422621322054e-01
2.082537256400458503e-01
2.178066488345433704e-01
1.761559037065341948e-01
2.246847535345815883e-01
2.292701566679404002e-01
2.189529996178830595e-01
2.204814673290026728e-01
2.200993504012227764e-01
1.925869316010699328e-01
2.353840275124187975e-01
2.174245319067634741e-01
2.277416889568207869e-01
2.189529996178830595e-01
2.158960641956438609e-01
2.097821933511654635e-01
2.143675964845242754e-01
2.323270920901795988e-01
2.139854795567443513e-01
2.430263660680168081e-01
2.204814673290026728e-01
2.158960641956438609e-01
2.327092090179594952e-01
2.250668704623614846e-01
2.281238058846006833e-01
2.460833014902560067e-01
2.445548337791364213e-01
2.800917080626671996e-01
2.919373328238440979e-01
2.877340466182651824e-01
3.091325945739396008e-01
2.877340466182651824e-01
2.831486434849063705e-01
3.274742071073748484e-01
2.984333205961023916e-01
3.290026748184944339e-01
3.102789453572793454e-01
3.534581581964080788e-01
3.530760412686281824e-01
3.290026748184944339e-01
3.427588842185708695e-01
3.381734810852120576e-01
3.809705769965609501e-01
3.549866259075277197e-01
4.035154757355751132e-01
4.035154757355751132e-01
4.145968666411922188e-01
4.298815437523882399e-01
4.359954145968666372e-01
4.493695070691631765e-01
4.249140236912495316e-01
4.375238823079862227e-01
4.768819258693159924e-01
4.524264424914023475e-01
4.864348490638135125e-01
4.772640427970958887e-01
4.738249904470768215e-01
5.001910584638900037e-01
4.986625907527703627e-01
5.139472678639663838e-01
5.460450897974780116e-01
5.429881543752388406e-01
5.227359572029041113e-01
5.429881543752388406e-01
5.781429117309896393e-01
5.792892625143294394e-01
5.934275888421857159e-01
6.056553305311425106e-01
6.025983951089033397e-01
6.159724875811998235e-01
6.190294230034391054e-01
6.163546045089797198e-01
6.495987772258311477e-01
6.587695834925487715e-01
6.530378295758502150e-01
6.495987772258311477e-01
6.515093618647306295e-01
6.499808941536110440e-01
6.927779900649598810e-01
6.576232327092089713e-01
6.943064577760794664e-01
6.809323653037829827e-01
7.095911348872755431e-01
7.248758119984715087e-01
6.923958731371799846e-01
7.168513565150935740e-01
7.187619411539931669e-01
7.279327474207107906e-01
7.076805502483759502e-01
7.275506304929307833e-01
7.229652273595720269e-01
7.325181505540695470e-01
7.336645013374092361e-01
7.416889568207871708e-01
7.432174245319067563e-01
7.535345815819640691e-01
7.905999235766144606e-01
7.921283912877340461e-01
7.779900649598777695e-01
7.478028276652656237e-01
7.554451662208635510e-01
7.627053878486816929e-01
7.810470003821169405e-01
7.879251050821551861e-01
7.982422621322124989e-01
7.737867787542987985e-01
7.768437141765379694e-01
7.936568589988536315e-01
8.043561329766908408e-01
7.783721818876576659e-01
7.764615972487580731e-01
8.181123423767673319e-01
7.967137944210928024e-01
8.135269392434084645e-01
7.799006495987772514e-01
8.070309514711502263e-01
8.119984715322888791e-01
7.795185326709973550e-01
7.753152464654183840e-01
8.055024837600305299e-01
7.997707298433320844e-01
8.058846006878104262e-01
7.646159724875811747e-01
7.615590370653420038e-01
8.024455483377913589e-01
7.692013756209400421e-01
7.676729079098204567e-01
7.585021016431028329e-01
7.963316774933129061e-01
7.997707298433320844e-01
7.967137944210928024e-01
7.676729079098204567e-01
7.676729079098204567e-01
7.951853267099732170e-01
7.814291173098968368e-01
7.569736339319831364e-01
7.596484524264425220e-01
7.856324035154756968e-01
7.585021016431028329e-01
7.554451662208635510e-01
7.348108521207489252e-01
7.523882307986243800e-01
7.264042797095910942e-01
7.447458922430263417e-01
7.371035536874283034e-01
7.233473442873519232e-01
7.508597630875047946e-01
7.157050057317538849e-01
7.493312953763852091e-01
7.160871226595337813e-01
7.493312953763852091e-01
7.493312953763852091e-01
7.508597630875047946e-01
7.218188765762323378e-01
7.248758119984715087e-01
7.080626671761559576e-01
7.069163163928161575e-01
7.092090179594956467e-01
7.309896828429499616e-01
7.264042797095910942e-01
6.771111960259839080e-01
6.744363775315246334e-01
6.870462361482613245e-01
7.107374856706152322e-01
6.652655712648070097e-01
6.912495223538402955e-01
6.698509743981658771e-01
6.939243408482995701e-01
6.587695834925487715e-01
6.851356515093618427e-01
6.557126480703094895e-01
6.893389377149408137e-01
6.958349254871990519e-01
6.557126480703094895e-01
6.893389377149408137e-01
6.832250668704623608e-01
6.816965991593427754e-01
6.423385555980130057e-01
6.683225066870462916e-01
6.408100878868934203e-01
6.434849063813526948e-01
6.652655712648070097e-01
6.266717615590370327e-01
6.388995032479939384e-01
6.576232327092089713e-01
6.239969430645777582e-01
6.132976690867405489e-01
6.434849063813526948e-01
6.465418418035918657e-01
6.511272449369507331e-01
6.484524264424913476e-01
6.511272449369507331e-01
6.117692013756209635e-01
6.469239587313717621e-01
6.163546045089797198e-01
6.041268628200229251e-01
6.392816201757738348e-01
6.159724875811998235e-01
6.098586167367214816e-01
6.178830722200993053e-01
6.255254107756973436e-01
6.194115399312190018e-01
5.792892625143294394e-01
5.796713794421093358e-01
5.961024073366449905e-01
5.796713794421093358e-01
5.720290408865112974e-01
6.113870844478410671e-01
5.731753916698509865e-01
6.037447458922430288e-01
5.869316010699273667e-01
5.823461979365686103e-01
5.689721054642720155e-01
6.087122659533816815e-01
6.025983951089033397e-01
5.945739396255254050e-01
5.624761176920137773e-01
5.873137179977072631e-01
5.552158960641956353e-01
5.536874283530760499e-01
5.536874283530760499e-01
5.735575085976308829e-01
5.364921666029804914e-01
5.380206343141000769e-01
5.720290408865112974e-01
5.521589606419564644e-01
5.536874283530760499e-01
5.483377913641573898e-01
5.441345051585785297e-01
5.502483760030569826e-01
5.246465418418035931e-01
5.288498280473824531e-01
5.594191822697746064e-01
5.196790217806648293e-01
5.296140619029422458e-01
5.215896064195644222e-01
5.395491020252196623e-01
5.429881543752388406e-01
5.273213603362628676e-01
5.277034772640427640e-01
4.940771876194115508e-01
5.231180741306840076e-01
4.898739014138326353e-01
5.212074894917845258e-01
5.154757355750859693e-01
4.742071073748567178e-01
4.772640427970958887e-01
4.799388612915552188e-01
4.757355750859763033e-01
4.879633167749331535e-01
4.906381352693924280e-01
5.047764615972487601e-01
5.028658769583492782e-01
4.833779136415743416e-01
5.001910584638900037e-01
4.864348490638135125e-01
4.940771876194115508e-01
4.936950706916316545e-01
4.573939625525410557e-01
4.772640427970958887e-01
4.325563622468475145e-01
4.375238823079862227e-01
4.738249904470768215e-01
4.585403133358808003e-01
4.249140236912495316e-01
4.615972487581199712e-01
4.482231562858234875e-01
4.638899503247994049e-01
4.463125716469239501e-01
4.635078333970195086e-01
4.325563622468475145e-01
4.207107374856706161e-01
4.417271685135651382e-01
4.283530760412686544e-01
4.604508979747802822e-01
4.252961406190294280e-01
4.344669468857470518e-01
4.103935804356133032e-01
4.451662208635842610e-01
4.447841039358043647e-01
4.069545280855941805e-01
3.931983186855177448e-01
4.268246083301490135e-01
4.023691249522353686e-01
3.931983186855177448e-01
4.298815437523882399e-01
3.947267863966373858e-01
4.035154757355751132e-01
4.314100114635078254e-01
4.191822697745510307e-01
4.249140236912495316e-01
4.084829957967138214e-01
4.176538020634313897e-01
4.371417653802063263e-01
4.218570882690103052e-01
4.130683989300725778e-01
4.329384791746274108e-01
4.325563622468475145e-01
4.145968666411922188e-01
3.920519679021780557e-01
4.142147497134123224e-01
3.947267863966373858e-01
4.188001528467711343e-01
3.836453954910202246e-01
4.096293465800535105e-01
3.870844478410393474e-01
3.855559801299197620e-01
3.897592663354986775e-01
4.176538020634313897e-01
3.943446694688574894e-01
4.069545280855941805e-01
3.947267863966373858e-01
4.390523500191058637e-01
4.344669468857470518e-01
4.375238823079862227e-01
4.023691249522353686e-01
4.157432174245319079e-01
3.989300726022163013e-01
3.989300726022163013e-01
4.310278945357279290e-01
4.222392051967902016e-01
4.023691249522353686e-01
4.115399312189529923e-01
4.161253343523118042e-01
4.222392051967902016e-01
4.371417653802063263e-01
3.931983186855177448e-01
4.115399312189529923e-01
4.356132976690867409e-01
4.176538020634313897e-01
4.482231562858234875e-01
4.191822697745510307e-01
4.405808177302254491e-01
4.405808177302254491e-01
4.226213221245700979e-01
4.371417653802063263e-01
4.145968666411922188e-01
4.493695070691631765e-01
4.279709591134887026e-01
4.417271685135651382e-01
4.069545280855941805e-01
4.100114635078334069e-01
4.176538020634313897e-01
4.050439434466946986e-01
4.466946885747038465e-01
4.222392051967902016e-01
4.497516239969430729e-01
4.283530760412686544e-01
4.482231562858234875e-01
4.268246083301490135e-01
4.359954145968666372e-01
4.142147497134123224e-01
4.237676729079098426e-01
4.191822697745510307e-01
4.191822697745510307e-01
4.176538020634313897e-01
4.421092854413450346e-01
4.203286205578907198e-01
4.466946885747038465e-01
4.497516239969430729e-01
4.493695070691631765e-01
4.298815437523882399e-01
4.405808177302254491e-01
4.130683989300725778e-01
4.344669468857470518e-01
4.356132976690867409e-01
4.436377531524646756e-01
4.069545280855941805e-01
4.100114635078334069e-01
4.126862820022926814e-01
4.218570882690103052e-01
4.100114635078334069e-01
4.451662208635842610e-01
4.172716851356514933e-01
4.497516239969430729e-01
4.130683989300725778e-01
4.222392051967902016e-01
4.451662208635842610e-01
4.264424914023691171e-01
4.279709591134887026e-01
4.100114635078334069e-01
4.207107374856706161e-01
4.142147497134123224e-01
3.851738632021398656e-01
4.237676729079098426e-01
4.008406572411157831e-01
4.081008788689338695e-01
4.126862820022926814e-01
4.218570882690103052e-01
4.237676729079098426e-01
4.111578142911730960e-01
4.065724111578142841e-01
4.325563622468475145e-01
3.897592663354986775e-01
3.897592663354986775e-01
3.836453954910202246e-01
3.993121895299961976e-01
3.935804356132976967e-01
3.779136415743217237e-01
3.809705769965609501e-01
3.687428353076040999e-01
3.836453954910202246e-01
3.641574321742453435e-01
3.886129155521589329e-01
3.870844478410393474e-01
4.019870080244554722e-01
3.851738632021398656e-01
3.836453954910202246e-01
3.744745892243026564e-01
3.748567061520825527e-01
3.702713030187237409e-01
4.023691249522353686e-01
3.702713030187237409e-01
3.641574321742453435e-01
3.626289644631257025e-01
3.790599923576614683e-01
3.851738632021398656e-01
3.717997707298433263e-01
3.458158196408100959e-01
3.760030569354222418e-01
3.473442873519296814e-01
3.488727550630492669e-01
3.320596102407336603e-01
3.698891860909438445e-01
3.255636224684753666e-01
3.641574321742453435e-01
3.270920901795949520e-01
3.362628964463125758e-01
3.240351547573557256e-01
3.656858998853649290e-01
3.626289644631257025e-01
3.534581581964080788e-01
3.626289644631257025e-01
3.320596102407336603e-01
3.561329766908674088e-01
3.381734810852120576e-01
3.377913641574321613e-01
3.213603362628964510e-01
3.133358807795185164e-01
3.228888039740160365e-01
2.980512036683224952e-01
3.316774933129537639e-01
3.095147115017195527e-01
3.240351547573557256e-01
3.347344287351929903e-01
3.026366068016813071e-01
2.969048528849828061e-01
3.286205578907145375e-01
3.290026748184944339e-01
2.969048528849828061e-01
3.148643484906381573e-01
2.995796713794421362e-01
3.274742071073748484e-01
3.026366068016813071e-01
2.888803974016048715e-01
2.812380588460068886e-01
3.244172716851356775e-01
3.014902560183416180e-01
2.724493695070691612e-01
2.674818494459304530e-01
2.705387848681696794e-01
2.648070309514711229e-01
2.923194497516239942e-01
2.613679786014520556e-01
2.571646923958731401e-01
2.800917080626671996e-01
2.586931601069927256e-01
2.659533817348108675e-01
2.705387848681696794e-01
3.014902560183416180e-01
2.705387848681696794e-01
2.598395108903324147e-01
2.663354986625907639e-01
2.907909820405044088e-01
2.907909820405044088e-01
2.919373328238440979e-01
2.751241880015284913e-01
2.525792892625143282e-01
2.690103171570500384e-01
2.525792892625143282e-01
2.445548337791364213e-01
2.434084829957967044e-01
2.663354986625907639e-01
2.418800152846771190e-01
2.353840275124187975e-01
2.556362246847535546e-01
2.678639663737103493e-01
2.399694306457776094e-01
2.403515475735575058e-01
2.632785632403515375e-01
2.418800152846771190e-01
2.785632403515475586e-01
2.418800152846771190e-01
2.491402369124952332e-01
2.525792892625143282e-01
2.781811234237676622e-01
2.693924340848299348e-01
2.460833014902560067e-01
2.277416889568207869e-01
2.521971723347344319e-01
2.262132212457011737e-01
2.189529996178830595e-01
2.495223538402751295e-01
2.437905999235766008e-01
2.464654184180359309e-01
2.388230798624378926e-01
2.464654184180359309e-01
2.250668704623614846e-01
2.174245319067634741e-01
2.663354986625907639e-01
2.273595720290408906e-01
2.586931601069927256e-01
2.590752770347726219e-01
2.220099350401222860e-01
2.556362246847535546e-01
2.541077569736339137e-01
2.327092090179594952e-01
2.193351165456629837e-01
2.552541077569736583e-01
2.231562858234619751e-01
2.296522735957202965e-01
2.220099350401222860e-01
2.418800152846771190e-01
2.216278181123423896e-01
2.281238058846006833e-01
2.384409629346579962e-01
2.449369507069163177e-01
2.449369507069163177e-01
2.097821933511654635e-01
2.434084829957967044e-01
2.155139472678639645e-01
2.235384027512418714e-01
2.250668704623614846e-01
2.369124952235384107e-01
2.388230798624378926e-01
2.139854795567443513e-01
2.246847535345815883e-01
2.094000764233855671e-01
2.021398547955674529e-01
2.342376767290791084e-01
1.929690485288498292e-01
2.189529996178830595e-01
2.281238058846006833e-01
2.051967902178066516e-01
2.281238058846006833e-01
2.036683225066870384e-01
2.307986243790599856e-01
2.067252579289262648e-01
2.414978983568972226e-01
2.128391287734046622e-01
2.311807413068398820e-01
2.051967902178066516e-01
2.185708826901031632e-01
2.307986243790599856e-01
2.139854795567443513e-01
2.399694306457776094e-01
2.094000764233855671e-01
2.285059228123805797e-01
1.987008024455483302e-01
2.281238058846006833e-01
2.189529996178830595e-01
2.048146732900267553e-01
2.285059228123805797e-01
2.204814673290026728e-01
1.895299961788307341e-01
2.250668704623614846e-01
2.296522735957202965e-01
2.185708826901031632e-01
2.109285441345051526e-01
1.979365685899885374e-01
2.372946121513183071e-01
2.063431410011463407e-01
2.097821933511654635e-01
2.174245319067634741e-01
2.036683225066870384e-01
1.990829193733282265e-01
2.143675964845242754e-01
2.032862055789071420e-01
1.990829193733282265e-01
2.109285441345051526e-01
1.975544516622086411e-01
1.987008024455483302e-01
2.220099350401222860e-01
1.899121131066106305e-01
2.128391287734046622e-01
1.971723347344287447e-01
2.235384027512418714e-01
2.250668704623614846e-01
2.315628582346198061e-01
1.971723347344287447e-01
2.170424149789835777e-01
2.139854795567443513e-01
2.200993504012227764e-01
2.082537256400458503e-01
2.369124952235384107e-01
1.971723347344287447e-01
2.200993504012227764e-01
1.895299961788307341e-01
1.880015284677111209e-01
2.017577378677875566e-01
1.899121131066106305e-01
2.193351165456629837e-01
2.189529996178830595e-01
1.914405808177302160e-01
2.017577378677875566e-01
1.868551776843714041e-01
2.158960641956438609e-01
2.235384027512418714e-01
2.292701566679404002e-01
2.139854795567443513e-01
1.971723347344287447e-01
1.990829193733282265e-01
2.357661444401986939e-01
2.128391287734046622e-01
2.036683225066870384e-01
2.372946121513183071e-01
2.036683225066870384e-01
1.914405808177302160e-01
2.277416889568207869e-01
2.158960641956438609e-01
2.097821933511654635e-01
2.193351165456629837e-01
1.864730607565915077e-01
2.143675964845242754e-01
2.220099350401222860e-01
2.082537256400458503e-01
2.113106610622850490e-01
1.792128391287733935e-01
1.868551776843714041e-01
1.868551776843714041e-01
2.246847535345815883e-01
1.929690485288498292e-01
2.032862055789071420e-01
1.914405808177302160e-01
1.960259839510890278e-01
1.837982422621322054e-01
1.910584638899503196e-01
1.899121131066106305e-01
1.895299961788307341e-01
2.158960641956438609e-01
1.853267099732518186e-01
1.761559037065341948e-01
2.155139472678639645e-01
1.837982422621322054e-01
1.776843714176538080e-01
2.158960641956438609e-01
2.082537256400458503e-01
1.807413068398930067e-01
2.063431410011463407e-01
2.189529996178830595e-01
2.006113870844478397e-01
2.281238058846006833e-01
2.265953381734810979e-01
1.994650363011081506e-01
2.216278181123423896e-01
2.113106610622850490e-01
2.235384027512418714e-01
2.250668704623614846e-01
2.009935040122277361e-01
1.792128391287733935e-01
1.964081008788689242e-01
1.807413068398930067e-01
1.792128391287733935e-01
2.063431410011463407e-01
2.178066488345433704e-01
1.818876576232326958e-01
1.792128391287733935e-01
1.960259839510890278e-01
1.990829193733282265e-01
1.818876576232326958e-01
2.063431410011463407e-01
1.895299961788307341e-01
1.944975162399694424e-01
1.899121131066106305e-01
1.834161253343523090e-01
1.925869316010699328e-01
1.971723347344287447e-01
1.914405808177302160e-01
1.795949560565533176e-01
1.715705005731753829e-01
1.868551776843714041e-01
1.773022544898739117e-01
1.811234237676729031e-01
2.082537256400458503e-01
1.868551776843714041e-01
2.178066488345433704e-01
2.113106610622850490e-01
1.807413068398930067e-01
1.883836453954910173e-01
2.246847535345815883e-01
2.063431410011463407e-01
2.265953381734810979e-01
2.128391287734046622e-01
1.880015284677111209e-01
1.971723347344287447e-01
2.285059228123805797e-01
2.113106610622850490e-01
2.273595720290408906e-01
1.880015284677111209e-01
2.048146732900267553e-01
2.262132212457011737e-01
1.837982422621322054e-01
2.204814673290026728e-01
2.128391287734046622e-01
1.987008024455483302e-01
2.094000764233855671e-01
2.399694306457776094e-01
2.189529996178830595e-01
2.327092090179594952e-01
2.598395108903324147e-01
2.617500955292319520e-01
2.323270920901795988e-01
2.659533817348108675e-01
2.399694306457776094e-01
2.663354986625907639e-01
2.846771111960260114e-01
2.586931601069927256e-01
2.613679786014520556e-01
2.648070309514711229e-01
2.816201757737867850e-01
2.904088651127245124e-01
3.045471914405808445e-01
3.194497516239969692e-01
2.873519296904852860e-01
3.381734810852120576e-01
3.076041268628200154e-01
3.519296904852884933e-01
3.595720290408865316e-01
3.335880779518532457e-01
3.805884600687810537e-01
3.916698509743981593e-01
3.683607183798242035e-01
3.794421092854413646e-01
4.207107374856706161e-01
3.912877340466182630e-01
4.161253343523118042e-01
4.294994268246083435e-01
4.252961406190294280e-01
4.512800917080626584e-01
4.310278945357279290e-01
4.417271685135651382e-01
4.401987008024455528e-01
4.696217042414979059e-01
4.753534581581964069e-01
5.063049293083683455e-01
4.818494459304547006e-01
4.921666029805120135e-01
5.089797478028276201e-01
5.181505540695452439e-01
5.471914405808177007e-01
5.433702713030187370e-01
5.536874283530760499e-01
6.006878104700038579e-01
5.674436377531524300e-01
5.842567825754680921e-01
5.949560565533053014e-01
6.132976690867405489e-01
6.194115399312190018e-01
6.113870844478410671e-01
6.453954910202521766e-01
6.373710355368742420e-01
6.473060756591516585e-01
6.683225066870462916e-01
6.759648452426442189e-01
6.698509743981658771e-01
6.557126480703094895e-01
6.744363775315246334e-01
6.725257928926251516e-01
6.836071837982422572e-01
7.015666794038976084e-01
7.172334734428734704e-01
7.141765380206342995e-01
7.371035536874283034e-01
7.107374856706152322e-01
7.371035536874283034e-01
7.386320213985479999e-01
7.642338555598012784e-01
7.588842185708827293e-01
7.413068398930072744e-01
7.401604891096675853e-01
7.451280091708062381e-01
7.672907909820404493e-01
7.856324035154756968e-01
7.795185326709973550e-01
7.799006495987772514e-01
7.596484524264425220e-01
7.951853267099732170e-01
8.074130683989301227e-01
8.104700038211692936e-01
7.753152464654183840e-01
8.238440962934657774e-01
7.997707298433320844e-01
8.055024837600305299e-01
7.844860527321360077e-01
8.135269392434084645e-01
7.982422621322124989e-01
8.272831486434849557e-01
7.890714558654948751e-01
7.936568589988536315e-01
8.242262132212456738e-01
8.165838746656476355e-01
7.860145204432555932e-01
7.905999235766144606e-01
8.192586931601070210e-01
8.284294994268246448e-01
7.982422621322124989e-01
8.119984715322888791e-01
7.997707298433320844e-01
7.951853267099732170e-01
8.093236530378296045e-01
8.276652655712648521e-01
8.119984715322888791e-01
8.318685517768437121e-01
8.074130683989301227e-01
8.242262132212456738e-01
7.841039358043561114e-01
8.242262132212456738e-01
8.119984715322888791e-01
8.058846006878104262e-01
7.951853267099732170e-01
7.703477264042797312e-01
7.921283912877340461e-01
7.776079480320978732e-01
8.016813144822315662e-01
7.661444401987007602e-01
7.768437141765379694e-01
7.921283912877340461e-01
7.829575850210164223e-01
7.753152464654183840e-01
8.043561329766908408e-01
7.657623232709208638e-01
7.978601452044326026e-01
7.661444401987007602e-01
7.967137944210928024e-01
7.768437141765379694e-01
7.703477264042797312e-01
7.462743599541459272e-01
7.554451662208635510e-01
7.386320213985479999e-01
7.340466182651891325e-01
7.554451662208635510e-01
7.478028276652656237e-01
7.416889568207871708e-01
7.646159724875811747e-01
7.646159724875811747e-01
7.458922430263660308e-01
7.233473442873519232e-01
7.264042797095910942e-01
7.229652273595720269e-01
7.520061138708444837e-01
7.554451662208635510e-01
7.569736339319831364e-01
7.340466182651891325e-01
7.309896828429499616e-01
7.065341994650362611e-01
7.187619411539931669e-01
7.309896828429499616e-01
7.015666794038976084e-01
7.248758119984715087e-01
7.248758119984715087e-01
7.030951471150171939e-01
6.774933129537638044e-01
7.122659533817348176e-01
6.988918609094383338e-01
7.111196025983951285e-01
6.862820022927015318e-01
7.095911348872755431e-01
6.801681314482231899e-01
7.095911348872755431e-01
6.847535345815819463e-01
6.778754298815437007e-01
6.729079098204050480e-01
6.790217806648835008e-01
6.943064577760794664e-01
6.820787160871226718e-01
6.729079098204050480e-01
6.587695834925487715e-01
6.560947649980893859e-01
6.729079098204050480e-01
6.606801681314482533e-01
6.392816201757738348e-01
6.453954910202521766e-01
6.725257928926251516e-01
6.744363775315246334e-01
6.557126480703094895e-01
6.587695834925487715e-01
6.652655712648070097e-01
6.652655712648070097e-01
6.511272449369507331e-01
6.450133740924722803e-01
6.381352693924340347e-01
6.377531524646541383e-01
6.362246847535345529e-01
6.480703095147114512e-01
6.587695834925487715e-01
6.224684753534581727e-01
6.648834543370271133e-01
6.388995032479939384e-01
6.499808941536110440e-01
6.408100878868934203e-01
6.316392816201757965e-01
6.025983951089033397e-01
6.236148261367978618e-01
5.949560565533053014e-01
6.255254107756973436e-01
6.285823461979365145e-01
6.301108139090562110e-01
5.983951089033243687e-01
6.083301490256017852e-01
6.006878104700038579e-01
6.388995032479939384e-01
6.362246847535345529e-01
6.301108139090562110e-01
6.041268628200229251e-01
5.903706534199465450e-01
5.930454719144058195e-01
6.243790599923576545e-01
5.842567825754680921e-01
5.792892625143294394e-01
5.949560565533053014e-01
5.777607948032097429e-01
5.961024073366449905e-01
5.628582346197936737e-01
5.613297669086740882e-01
5.659151700420328446e-01
5.945739396255254050e-01
5.796713794421093358e-01
5.674436377531524300e-01
5.995414596866641688e-01
5.777607948032097429e-01
5.552158960641956353e-01
5.930454719144058195e-01
5.903706534199465450e-01
5.720290408865112974e-01
5.735575085976308829e-01
5.857852502865876776e-01
5.349636988918609060e-01
5.429881543752388406e-01
5.674436377531524300e-01
5.303782957585021496e-01
5.353458158196408023e-01
5.414596866641192552e-01
5.429881543752388406e-01
5.150936186473060729e-01
5.414596866641192552e-01
5.124188001528467984e-01
5.200611387084448367e-01
5.032479938861291746e-01
5.108903324417272129e-01
5.059228123805884492e-01
5.410775697363393588e-01
5.001910584638900037e-01
5.181505540695452439e-01
5.246465418418035931e-01
5.108903324417272129e-01
5.047764615972487601e-01
5.185326709973251402e-01
5.108903324417272129e-01
4.772640427970958887e-01
4.726786396637370768e-01
5.078333970194879310e-01
5.074512800917080346e-01
4.757355750859763033e-01
4.665647688192586795e-01
4.677111196025983686e-01
4.772640427970958887e-01
5.017195261750095892e-01
4.650363011081390940e-01
4.726786396637370768e-01
5.043943446694688637e-01
5.032479938861291746e-01
5.028658769583492782e-01
4.677111196025983686e-01
4.742071073748567178e-01
4.910202521971723244e-01
4.680932365303783205e-01
4.528085594191822438e-01
4.849063813526939271e-01
4.680932365303783205e-01
4.707680550248375950e-01
4.543370271303018848e-01
4.814673290026748043e-01
4.390523500191058637e-01
4.386702330913259673e-01
4.772640427970958887e-01
4.451662208635842610e-01
4.833779136415743416e-01
4.451662208635842610e-01
4.466946885747038465e-01
4.696217042414979059e-01
4.501337409247229693e-01
4.463125716469239501e-01
4.722965227359571805e-01
4.757355750859763033e-01
4.604508979747802822e-01
4.539549102025219884e-01
4.421092854413450346e-01
4.604508979747802822e-01
4.310278945357279290e-01
4.726786396637370768e-01
4.432556362246847792e-01
4.294994268246083435e-01
4.646541841803591977e-01
4.551012609858616775e-01
4.524264424914023475e-01
4.344669468857470518e-01
4.680932365303783205e-01
4.493695070691631765e-01
4.803209782193351152e-01
4.822315628582345970e-01
4.497516239969430729e-01
4.845242644249140307e-01
4.745892243026366142e-01
4.803209782193351152e-01
4.864348490638135125e-01
4.451662208635842610e-01
4.803209782193351152e-01
4.814673290026748043e-01
4.478410393580435356e-01
4.329384791746274108e-01
4.742071073748567178e-01
4.711501719526174914e-01
4.707680550248375950e-01
4.665647688192586795e-01
4.539549102025219884e-01
4.573939625525410557e-01
4.619793656858998676e-01
4.738249904470768215e-01
4.466946885747038465e-01
4.829957967137944452e-01
4.845242644249140307e-01
4.539549102025219884e-01
4.818494459304547006e-01
4.680932365303783205e-01
4.512800917080626584e-01
4.478410393580435356e-01
4.711501719526174914e-01
4.466946885747038465e-01
4.711501719526174914e-01
4.421092854413450346e-01
4.711501719526174914e-01
4.375238823079862227e-01
4.539549102025219884e-01
4.787925105082155297e-01
4.600687810470003858e-01
4.619793656858998676e-01
4.742071073748567178e-01
4.619793656858998676e-01
4.451662208635842610e-01
4.803209782193351152e-01
4.615972487581199712e-01
4.619793656858998676e-01
4.432556362246847792e-01
4.757355750859763033e-01
4.803209782193351152e-01
4.417271685135651382e-01
4.784103935804356333e-01
4.742071073748567178e-01
4.298815437523882399e-01
4.497516239969430729e-01
4.661826518914787831e-01
4.344669468857470518e-01
4.272067252579289098e-01
4.325563622468475145e-01
4.344669468857470518e-01
4.512800917080626584e-01
4.543370271303018848e-01
4.314100114635078254e-01
4.371417653802063263e-01
4.650363011081390940e-01
4.604508979747802822e-01
4.268246083301490135e-01
4.619793656858998676e-01
4.543370271303018848e-01
4.279709591134887026e-01
4.264424914023691171e-01
4.279709591134887026e-01
4.191822697745510307e-01
4.497516239969430729e-01
4.482231562858234875e-01
4.405808177302254491e-01
4.344669468857470518e-01
4.069545280855941805e-01
4.084829957967138214e-01
4.482231562858234875e-01
4.081008788689338695e-01
4.096293465800535105e-01
4.161253343523118042e-01
4.436377531524646756e-01
4.451662208635842610e-01
4.283530760412686544e-01
4.081008788689338695e-01
4.100114635078334069e-01
4.375238823079862227e-01
4.451662208635842610e-01
3.977837218188765567e-01
3.958731371799770749e-01
4.249140236912495316e-01
4.237676729079098426e-01
4.222392051967902016e-01
4.100114635078334069e-01
3.821169277799006392e-01
3.962552541077569712e-01
3.790599923576614683e-01
3.882307986243790365e-01
4.115399312189529923e-01
4.096293465800535105e-01
3.981658387466564530e-01
3.958731371799770749e-01
4.130683989300725778e-01
4.126862820022926814e-01
3.775315246465418273e-01
4.035154757355751132e-01
3.733282384409629118e-01
3.943446694688574894e-01
3.790599923576614683e-01
4.019870080244554722e-01
3.691249522353840518e-01
3.912877340466182630e-01
3.855559801299197620e-01
3.687428353076040999e-01
3.580435613297668906e-01
3.886129155521589329e-01
3.867023309132594511e-01
3.886129155521589329e-01
3.763851738632021382e-01
3.637753152464653916e-01
3.530760412686281824e-01
3.775315246465418273e-01
3.882307986243790365e-01
3.637753152464653916e-01
3.702713030187237409e-01
3.702713030187237409e-01
3.824990447076805355e-01
3.412304165074512841e-01
3.641574321742453435e-01
3.347344287351929903e-01
3.351165456629728867e-01
3.347344287351929903e-01
3.332059610240733494e-01
3.259457393962552629e-01
3.351165456629728867e-01
3.225066870462361401e-01
3.225066870462361401e-01
3.228888039740160365e-01
3.488727550630492669e-01
3.240351547573557256e-01
3.255636224684753666e-01
3.519296904852884933e-01
3.339701948796331421e-01
3.565150936186473052e-01
3.397019487963316986e-01
3.377913641574321613e-01
3.332059610240733494e-01
3.259457393962552629e-01
3.045471914405808445e-01
3.152464654184180537e-01
3.290026748184944339e-01
2.949942682460833243e-01
2.907909820405044088e-01
2.965227359572029098e-01
3.152464654184180537e-01
3.240351547573557256e-01
2.846771111960260114e-01
2.862055789071455969e-01
2.888803974016048715e-01
3.228888039740160365e-01
2.873519296904852860e-01
3.202139854795567619e-01
3.240351547573557256e-01
3.167749331295376392e-01
2.896446312571647197e-01
3.167749331295376392e-01
2.980512036683224952e-01
3.045471914405808445e-01
3.198318685517768656e-01
2.755063049293083877e-01
2.999617883072220326e-01
2.999617883072220326e-01
2.644249140236912266e-01
2.663354986625907639e-01
2.816201757737867850e-01
2.923194497516239942e-01
2.904088651127245124e-01
2.873519296904852860e-01
3.045471914405808445e-01
3.030187237294612035e-01
2.648070309514711229e-01
2.953763851738632207e-01
2.739778372181887467e-01
3.011081390905617217e-01
3.045471914405808445e-01
2.907909820405044088e-01
3.060756591517004299e-01
2.755063049293083877e-01
2.602216278181123665e-01
2.556362246847535546e-01
2.659533817348108675e-01
2.479938861291555163e-01
2.693924340848299348e-01
2.556362246847535546e-01
2.739778372181887467e-01
2.586931601069927256e-01
2.709209017959495758e-01
2.521971723347344319e-01
2.904088651127245124e-01
2.785632403515475586e-01
2.858234619793657005e-01
2.693924340848299348e-01
2.724493695070691612e-01
2.525792892625143282e-01
2.525792892625143282e-01
2.923194497516239942e-01
2.586931601069927256e-01
2.919373328238440979e-01
2.831486434849063705e-01
2.812380588460068886e-01
2.495223538402751295e-01
2.414978983568972226e-01
2.307986243790599856e-01
2.311807413068398820e-01
2.342376767290791084e-01
2.586931601069927256e-01
2.495223538402751295e-01
2.327092090179594952e-01
2.724493695070691612e-01
2.445548337791364213e-01
2.800917080626671996e-01
2.602216278181123665e-01
2.678639663737103493e-01
2.820022927015666814e-01
2.384409629346579962e-01
2.797095911348873032e-01
2.785632403515475586e-01
2.418800152846771190e-01
2.342376767290791084e-01
2.567825754680932437e-01
2.724493695070691612e-01
2.479938861291555163e-01
2.613679786014520556e-01
2.296522735957202965e-01
2.235384027512418714e-01
2.632785632403515375e-01
2.495223538402751295e-01
2.262132212457011737e-01
2.246847535345815883e-01
2.403515475735575058e-01
2.659533817348108675e-01
2.613679786014520556e-01
2.598395108903324147e-01
2.525792892625143282e-01
2.327092090179594952e-01
2.552541077569736583e-01
2.338555598012991843e-01
2.648070309514711229e-01
2.556362246847535546e-01
2.648070309514711229e-01
2.552541077569736583e-01
2.628964463125716411e-01
2.510508215513947428e-01
2.556362246847535546e-01
2.132212457011845586e-01
2.537256400458540173e-01
2.556362246847535546e-01
2.113106610622850490e-01
2.231562858234619751e-01
2.369124952235384107e-01
2.613679786014520556e-01
2.231562858234619751e-01
2.399694306457776094e-01
2.307986243790599856e-01
2.537256400458540173e-01
2.632785632403515375e-01
2.430263660680168081e-01
2.632785632403515375e-01
2.418800152846771190e-01
2.571646923958731401e-01
2.510508215513947428e-01
2.250668704623614846e-01
2.323270920901795988e-01
2.067252579289262648e-01
2.124570118456247658e-01
2.418800152846771190e-01
2.235384027512418714e-01
2.357661444401986939e-01
2.220099350401222860e-01
2.403515475735575058e-01
2.246847535345815883e-01
2.250668704623614846e-01
2.311807413068398820e-01
2.311807413068398820e-01
2.235384027512418714e-01
2.571646923958731401e-01
2.583110431792128292e-01
2.407336645013374021e-01
2.556362246847535546e-01
2.541077569736339137e-01
2.113106610622850490e-01
2.124570118456247658e-01
2.418800152846771190e-01
2.109285441345051526e-01
2.189529996178830595e-01
2.353840275124187975e-01
2.097821933511654635e-01
2.097821933511654635e-01
2.113106610622850490e-01
2.479938861291555163e-01
2.537256400458540173e-01
2.510508215513947428e-01
2.170424149789835777e-01
2.586931601069927256e-01
2.476117692013756200e-01
2.586931601069927256e-01
2.495223538402751295e-01
2.158960641956438609e-01
2.109285441345051526e-01
2.250668704623614846e-01
2.353840275124187975e-01
2.434084829957967044e-01
2.158960641956438609e-01
2.220099350401222860e-01
2.449369507069163177e-01
2.265953381734810979e-01
2.204814673290026728e-01
2.476117692013756200e-01
2.071073748567061612e-01
2.449369507069163177e-01
2.449369507069163177e-01
2.342376767290791084e-01
2.598395108903324147e-01
2.262132212457011737e-01
2.571646923958731401e-01
2.204814673290026728e-01
2.388230798624378926e-01
2.185708826901031632e-01
2.113106610622850490e-01
2.311807413068398820e-01
2.495223538402751295e-01
2.204814673290026728e-01
2.021398547955674529e-01
2.216278181123423896e-01
2.063431410011463407e-01
2.464654184180359309e-01
2.311807413068398820e-01
2.357661444401986939e-01
2.476117692013756200e-01
2.384409629346579962e-01
2.327092090179594952e-01
2.403515475735575058e-01
2.235384027512418714e-01
2.449369507069163177e-01
2.338555598012991843e-01
2.307986243790599856e-01
2.296522735957202965e-01
2.311807413068398820e-01
2.143675964845242754e-01
2.139854795567443513e-01
2.292701566679404002e-01
2.281238058846006833e-01
1.929690485288498292e-01
2.323270920901795988e-01
2.223920519679021823e-01
2.048146732900267553e-01
2.311807413068398820e-01
2.143675964845242754e-01
2.311807413068398820e-01
2.200993504012227764e-01
2.113106610622850490e-01
2.399694306457776094e-01
2.430263660680168081e-01
2.311807413068398820e-01
2.063431410011463407e-01
2.063431410011463407e-01
2.113106610622850490e-01
2.036683225066870384e-01
1.960259839510890278e-01
