5.980129919755444723e-01
6.144440198700802380e-01
5.842567825754680921e-01
5.873137179977072631e-01
5.964845242644248868e-01
5.827283148643485067e-01
5.747038593809705720e-01
6.068016813144821997e-01
5.689721054642720155e-01
5.857852502865876776e-01
5.930454719144058195e-01
5.655330531142529482e-01
5.747038593809705720e-01
5.766144440198700538e-01
5.976308750477645759e-01
5.552158960641956353e-01
5.685899885364921191e-01
5.491020252197171825e-01
5.854031333588077812e-01
5.884600687810469521e-01
5.487199082919372861e-01
5.552158960641956353e-01
5.536874283530760499e-01
5.487199082919372861e-01
5.735575085976308829e-01
5.426060374474589443e-01
5.471914405808177007e-01
5.716469239587314011e-01
5.460450897974780116e-01
5.292319449751623495e-01
5.257928926251432822e-01
5.624761176920137773e-01
5.242644249140236967e-01
5.250286587695834895e-01
5.246465418418035931e-01
5.261750095529231785e-01
5.536874283530760499e-01
5.399312189529996697e-01
5.334352311807413205e-01
5.105082155139473166e-01
5.399312189529996697e-01
5.303782957585021496e-01
5.078333970194879310e-01
4.982804738249904664e-01
5.154757355750859693e-01
4.936950706916316545e-01
4.894917844860527389e-01
5.170042032862055548e-01
4.971341230416507218e-01
4.852884982804738234e-01
5.032479938861291746e-01
5.047764615972487601e-01
4.604508979747802822e-01
4.604508979747802822e-01
4.635078333970195086e-01
4.738249904470768215e-01
4.833779136415743416e-01
4.497516239969430729e-01
4.528085594191822438e-01
4.570118456247611594e-01
4.401987008024455528e-01
4.787925105082155297e-01
4.570118456247611594e-01
4.742071073748567178e-01
4.386702330913259673e-01
4.558654948414214703e-01
4.207107374856706161e-01
4.424914023691249310e-01
4.298815437523882399e-01
4.482231562858234875e-01
4.405808177302254491e-01
4.145968666411922188e-01
4.172716851356514933e-01
4.130683989300725778e-01
4.421092854413450346e-01
4.161253343523118042e-01
4.207107374856706161e-01
4.188001528467711343e-01
4.207107374856706161e-01
4.356132976690867409e-01
4.233855559801299462e-01
4.081008788689338695e-01
4.008406572411157831e-01
4.264424914023691171e-01
4.237676729079098426e-01
3.794421092854413646e-01
3.970194879633167639e-01
4.207107374856706161e-01
4.023691249522353686e-01
3.790599923576614683e-01
4.172716851356514933e-01
4.126862820022926814e-01
3.901413832632785739e-01
4.019870080244554722e-01
4.115399312189529923e-01
3.886129155521589329e-01
3.958731371799770749e-01
4.004585403133358867e-01
3.763851738632021382e-01
3.974016048910966603e-01
3.775315246465418273e-01
4.069545280855941805e-01
3.901413832632785739e-01
3.714176538020634299e-01
3.962552541077569712e-01
3.714176538020634299e-01
3.824990447076805355e-01
4.069545280855941805e-01
3.744745892243026564e-01
4.081008788689338695e-01
3.886129155521589329e-01
3.870844478410393474e-01
3.989300726022163013e-01
3.821169277799006392e-01
3.809705769965609501e-01
3.626289644631257025e-01
3.763851738632021382e-01
3.993121895299961976e-01
3.748567061520825527e-01
4.084829957967138214e-01
3.717997707298433263e-01
3.698891860909438445e-01
3.733282384409629118e-01
3.928162017577378484e-01
3.840275124188001765e-01
3.782957585021016200e-01
4.145968666411922188e-01
3.717997707298433263e-01
4.081008788689338695e-01
3.870844478410393474e-01
3.717997707298433263e-01
3.993121895299961976e-01
4.008406572411157831e-01
3.714176538020634299e-01
3.943446694688574894e-01
4.054260603744745950e-01
4.084829957967138214e-01
3.855559801299197620e-01
4.119220481467328887e-01
3.962552541077569712e-01
3.886129155521589329e-01
4.188001528467711343e-01
4.023691249522353686e-01
4.176538020634313897e-01
4.207107374856706161e-01
4.176538020634313897e-01
4.176538020634313897e-01
4.038975926633550095e-01
3.836453954910202246e-01
4.172716851356514933e-01
4.188001528467711343e-01
4.054260603744745950e-01
4.115399312189529923e-01
4.038975926633550095e-01
3.794421092854413646e-01
3.943446694688574894e-01
4.019870080244554722e-01
3.886129155521589329e-01
3.863202139854795547e-01
3.794421092854413646e-01
3.870844478410393474e-01
4.222392051967902016e-01
4.191822697745510307e-01
4.279709591134887026e-01
4.004585403133358867e-01
4.130683989300725778e-01
3.809705769965609501e-01
3.828811616354604319e-01
4.008406572411157831e-01
3.886129155521589329e-01
4.237676729079098426e-01
3.916698509743981593e-01
4.069545280855941805e-01
3.794421092854413646e-01
3.809705769965609501e-01
3.993121895299961976e-01
4.142147497134123224e-01
3.836453954910202246e-01
4.023691249522353686e-01
3.897592663354986775e-01
4.084829957967138214e-01
4.222392051967902016e-01
3.931983186855177448e-01
3.962552541077569712e-01
4.145968666411922188e-01
4.126862820022926814e-01
3.886129155521589329e-01
4.237676729079098426e-01
3.867023309132594511e-01
3.855559801299197620e-01
4.096293465800535105e-01
3.821169277799006392e-01
4.023691249522353686e-01
3.886129155521589329e-01
4.100114635078334069e-01
4.172716851356514933e-01
3.824990447076805355e-01
3.733282384409629118e-01
3.958731371799770749e-01
4.157432174245319079e-01
3.974016048910966603e-01
4.126862820022926814e-01
3.916698509743981593e-01
3.717997707298433263e-01
3.958731371799770749e-01
4.115399312189529923e-01
4.100114635078334069e-01
3.702713030187237409e-01
3.931983186855177448e-01
3.698891860909438445e-01
3.748567061520825527e-01
3.683607183798242035e-01
3.691249522353840518e-01
3.775315246465418273e-01
3.779136415743217237e-01
3.611004967520061171e-01
3.912877340466182630e-01
3.656858998853649290e-01
3.637753152464653916e-01
3.779136415743217237e-01
3.790599923576614683e-01
3.790599923576614683e-01
3.931983186855177448e-01
3.809705769965609501e-01
3.962552541077569712e-01
3.614826136797860134e-01
3.717997707298433263e-01
3.519296904852884933e-01
3.809705769965609501e-01
3.504012227741689078e-01
3.488727550630492669e-01
3.549866259075277197e-01
3.515475735575085969e-01
3.565150936186473052e-01
3.469621704241497850e-01
3.626289644631257025e-01
3.458158196408100959e-01
3.484906381352693705e-01
3.469621704241497850e-01
3.412304165074512841e-01
3.484906381352693705e-01
3.412304165074512841e-01
3.565150936186473052e-01
3.714176538020634299e-01
3.427588842185708695e-01
3.591899121131066352e-01
3.530760412686281824e-01
3.683607183798242035e-01
3.412304165074512841e-01
3.458158196408100959e-01
3.412304165074512841e-01
3.412304165074512841e-01
3.515475735575085969e-01
3.225066870462361401e-01
3.205961024073366583e-01
3.549866259075277197e-01
3.439052350019105586e-01
3.194497516239969692e-01
3.152464654184180537e-01
3.469621704241497850e-01
3.335880779518532457e-01
3.504012227741689078e-01
3.121895299961788273e-01
3.198318685517768656e-01
3.290026748184944339e-01
3.427588842185708695e-01
3.076041268628200154e-01
3.259457393962552629e-01
3.121895299961788273e-01
3.183034008406572246e-01
3.290026748184944339e-01
3.297669086740542821e-01
3.228888039740160365e-01
3.293847917462743857e-01
3.290026748184944339e-01
2.980512036683224952e-01
3.263278563240351593e-01
3.072220099350401190e-01
2.904088651127245124e-01
3.183034008406572246e-01
2.846771111960260114e-01
2.999617883072220326e-01
2.842949942682460596e-01
2.965227359572029098e-01
3.076041268628200154e-01
3.167749331295376392e-01
3.163928162017577428e-01
2.781811234237676622e-01
3.141001146350783091e-01
3.106610622850592418e-01
2.995796713794421362e-01
2.770347726404279731e-01
3.076041268628200154e-01
3.087504776461597045e-01
2.709209017959495758e-01
2.858234619793657005e-01
2.797095911348873032e-01
2.674818494459304530e-01
3.072220099350401190e-01
2.755063049293083877e-01
3.034008406572410999e-01
2.812380588460068886e-01
2.693924340848299348e-01
2.617500955292319520e-01
2.938479174627435797e-01
2.586931601069927256e-01
2.949942682460833243e-01
2.831486434849063705e-01
2.862055789071455969e-01
2.755063049293083877e-01
2.506687046236148464e-01
2.781811234237676622e-01
2.682460833014902457e-01
2.678639663737103493e-01
2.617500955292319520e-01
2.525792892625143282e-01
2.816201757737867850e-01
2.537256400458540173e-01
2.495223538402751295e-01
2.476117692013756200e-01
2.479938861291555163e-01
2.846771111960260114e-01
2.674818494459304530e-01
2.919373328238440979e-01
2.663354986625907639e-01
2.510508215513947428e-01
2.812380588460068886e-01
2.663354986625907639e-01
2.820022927015666814e-01
2.755063049293083877e-01
2.525792892625143282e-01
2.418800152846771190e-01
2.735957202904088503e-01
2.525792892625143282e-01
2.659533817348108675e-01
2.552541077569736583e-01
2.384409629346579962e-01
2.369124952235384107e-01
2.781811234237676622e-01
2.521971723347344319e-01
2.460833014902560067e-01
2.388230798624378926e-01
2.766526557126480768e-01
2.479938861291555163e-01
2.693924340848299348e-01
2.430263660680168081e-01
2.770347726404279731e-01
2.632785632403515375e-01
2.583110431792128292e-01
2.724493695070691612e-01
2.659533817348108675e-01
2.644249140236912266e-01
2.556362246847535546e-01
2.690103171570500384e-01
2.667176155903706603e-01
2.342376767290791084e-01
2.648070309514711229e-01
2.491402369124952332e-01
2.357661444401986939e-01
2.586931601069927256e-01
2.648070309514711229e-01
2.311807413068398820e-01
2.628964463125716411e-01
2.693924340848299348e-01
2.372946121513183071e-01
2.265953381734810979e-01
2.430263660680168081e-01
2.476117692013756200e-01
2.460833014902560067e-01
2.617500955292319520e-01
2.556362246847535546e-01
2.617500955292319520e-01
2.204814673290026728e-01
2.250668704623614846e-01
2.281238058846006833e-01
2.552541077569736583e-01
2.357661444401986939e-01
2.403515475735575058e-01
2.434084829957967044e-01
2.403515475735575058e-01
2.216278181123423896e-01
2.445548337791364213e-01
2.445548337791364213e-01
2.353840275124187975e-01
2.204814673290026728e-01
2.556362246847535546e-01
2.495223538402751295e-01
2.506687046236148464e-01
2.537256400458540173e-01
2.495223538402751295e-01
2.113106610622850490e-01
2.338555598012991843e-01
2.143675964845242754e-01
2.510508215513947428e-01
2.158960641956438609e-01
2.128391287734046622e-01
2.250668704623614846e-01
2.495223538402751295e-01
2.525792892625143282e-01
2.246847535345815883e-01
2.124570118456247658e-01
2.495223538402751295e-01
2.139854795567443513e-01
2.491402369124952332e-01
2.525792892625143282e-01
2.418800152846771190e-01
2.113106610622850490e-01
2.571646923958731401e-01
2.495223538402751295e-01
2.109285441345051526e-01
2.155139472678639645e-01
2.090179594956056430e-01
2.094000764233855671e-01
2.078716087122659539e-01
2.372946121513183071e-01
2.434084829957967044e-01
2.143675964845242754e-01
2.338555598012991843e-01
2.434084829957967044e-01
2.460833014902560067e-01
2.468475353458158272e-01
2.495223538402751295e-01
2.525792892625143282e-01
2.311807413068398820e-01
2.128391287734046622e-01
2.246847535345815883e-01
2.189529996178830595e-01
2.414978983568972226e-01
2.032862055789071420e-01
2.113106610622850490e-01
2.139854795567443513e-01
2.021398547955674529e-01
2.051967902178066516e-01
2.288880397401604760e-01
2.357661444401986939e-01
2.376767290790982035e-01
2.021398547955674529e-01
2.032862055789071420e-01
2.208635842567825691e-01
2.235384027512418714e-01
2.006113870844478397e-01
2.006113870844478397e-01
2.051967902178066516e-01
2.155139472678639645e-01
2.055789071455865480e-01
2.040504394344669348e-01
2.369124952235384107e-01
2.216278181123423896e-01
2.262132212457011737e-01
1.971723347344287447e-01
2.250668704623614846e-01
2.189529996178830595e-01
1.929690485288498292e-01
2.006113870844478397e-01
2.097821933511654635e-01
1.990829193733282265e-01
2.124570118456247658e-01
1.975544516622086411e-01
2.189529996178830595e-01
2.032862055789071420e-01
2.353840275124187975e-01
2.155139472678639645e-01
2.143675964845242754e-01
2.357661444401986939e-01
2.296522735957202965e-01
2.094000764233855671e-01
2.292701566679404002e-01
2.292701566679404002e-01
2.174245319067634741e-01
2.051967902178066516e-01
1.899121131066106305e-01
2.265953381734810979e-01
2.311807413068398820e-01
1.880015284677111209e-01
1.956438670233091315e-01
2.094000764233855671e-01
1.990829193733282265e-01
2.235384027512418714e-01
2.200993504012227764e-01
1.944975162399694424e-01
2.048146732900267553e-01
2.036683225066870384e-01
1.971723347344287447e-01
2.200993504012227764e-01
2.002292701566679434e-01
2.296522735957202965e-01
2.246847535345815883e-01
2.246847535345815883e-01
2.346197936568590048e-01
2.124570118456247658e-01
2.296522735957202965e-01
2.067252579289262648e-01
2.265953381734810979e-01
2.082537256400458503e-01
2.082537256400458503e-01
1.975544516622086411e-01
2.063431410011463407e-01
2.346197936568590048e-01
2.006113870844478397e-01
2.220099350401222860e-01
2.372946121513183071e-01
2.082537256400458503e-01
2.078716087122659539e-01
2.277416889568207869e-01
2.311807413068398820e-01
2.063431410011463407e-01
2.491402369124952332e-01
2.078716087122659539e-01
2.449369507069163177e-01
2.204814673290026728e-01
2.113106610622850490e-01
2.525792892625143282e-01
2.296522735957202965e-01
2.602216278181123665e-01
2.567825754680932437e-01
2.369124952235384107e-01
2.372946121513183071e-01
2.632785632403515375e-01
2.449369507069163177e-01
2.476117692013756200e-01
2.709209017959495758e-01
3.026366068016813071e-01
2.934658005349636833e-01
2.862055789071455969e-01
2.862055789071455969e-01
2.957585021016431170e-01
3.274742071073748484e-01
2.934658005349636833e-01
3.347344287351929903e-01
3.076041268628200154e-01
3.381734810852120576e-01
3.530760412686281824e-01
3.305311425296140748e-01
3.549866259075277197e-01
3.855559801299197620e-01
3.931983186855177448e-01
3.775315246465418273e-01
3.974016048910966603e-01
4.038975926633550095e-01
4.310278945357279290e-01
4.008406572411157831e-01
4.191822697745510307e-01
4.203286205578907198e-01
4.386702330913259673e-01
4.573939625525410557e-01
4.528085594191822438e-01
4.608330149025601785e-01
5.078333970194879310e-01
4.982804738249904664e-01
4.849063813526939271e-01
5.227359572029041113e-01
5.242644249140236967e-01
5.441345051585785297e-01
5.307604126862820459e-01
5.414596866641192552e-01
5.842567825754680921e-01
5.552158960641956353e-01
5.842567825754680921e-01
6.159724875811998235e-01
6.056553305311425106e-01
6.045089797478028215e-01
6.117692013756209635e-01
6.178830722200993053e-01
6.255254107756973436e-01
6.408100878868934203e-01
6.771111960259839080e-01
6.560947649980893859e-01
6.958349254871990519e-01
6.713794421092854625e-01
6.943064577760794664e-01
7.229652273595720269e-01
7.030951471150171939e-01
7.371035536874283034e-01
7.371035536874283034e-01
7.233473442873519232e-01
7.244936950706916123e-01
7.585021016431028329e-01
7.416889568207871708e-01
7.478028276652656237e-01
7.707298433320596276e-01
7.646159724875811747e-01
7.734046618265189021e-01
8.074130683989301227e-01
8.074130683989301227e-01
7.860145204432555932e-01
8.089415361100497082e-01
8.012991975544516698e-01
8.437141765380206104e-01
8.119984715322888791e-01
8.517386320213985451e-01
8.318685517768437121e-01
8.551776843714176124e-01
8.559419182269774051e-01
8.440962934658005068e-01
8.482995796713794778e-01
8.440962934658005068e-01
8.807795185326710019e-01
8.456247611769200923e-01
8.792510508215514164e-01
8.941536110049674857e-01
8.914787925105082111e-01
8.670233091325946218e-01
8.681696599159343108e-01
9.006495987772258349e-01
8.727550630492930672e-01
8.727550630492930672e-01
8.731371799770729636e-01
8.773404661826519346e-01
8.727550630492930672e-01
8.975926633549866640e-01
8.979747802827665604e-01
8.914787925105082111e-01
9.063813526939243914e-01
8.853649216660297583e-01
8.972105464272067676e-01
8.991211310661062495e-01
9.037065341994650058e-01
9.048528849828046949e-01
9.006495987772258349e-01
8.991211310661062495e-01
9.002674818494459386e-01
8.987390141383263531e-01
9.113488727550630442e-01
8.838364539549101728e-01
8.712265953381734818e-01
9.002674818494459386e-01
8.758119984715322381e-01
8.895682078716087293e-01
8.609094382881161689e-01
8.761941153993121345e-01
8.777225831104318310e-01
8.834543370271302765e-01
8.532670997325181306e-01
8.761941153993121345e-01
8.502101643102789597e-01
8.654948414214749253e-01
8.440962934658005068e-01
8.727550630492930672e-01
8.456247611769200923e-01
8.395108903324417504e-01
8.486816965991593742e-01
8.685517768437142072e-01
8.272831486434849557e-01
8.425678257546809213e-01
8.211692777990065029e-01
8.513565150936186487e-01
8.135269392434084645e-01
8.269010317157050594e-01
8.181123423767673319e-01
8.364539549102024685e-01
8.211692777990065029e-01
8.165838746656476355e-01
7.921283912877340461e-01
8.288116163546045412e-01
8.074130683989301227e-01
7.783721818876576659e-01
7.951853267099732170e-01
7.768437141765379694e-01
8.028276652655712553e-01
7.768437141765379694e-01
8.009170806266717735e-01
7.688192586931601458e-01
7.936568589988536315e-01
7.646159724875811747e-01
7.917462743599541497e-01
7.814291173098968368e-01
7.447458922430263417e-01
7.462743599541459272e-01
7.401604891096675853e-01
7.294612151318303761e-01
7.432174245319067563e-01
7.447458922430263417e-01
7.600305693542224184e-01
7.627053878486816929e-01
7.596484524264425220e-01
7.199082919373328560e-01
7.214367596484524414e-01
7.508597630875047946e-01
7.107374856706152322e-01
7.122659533817348176e-01
7.122659533817348176e-01
7.111196025983951285e-01
7.080626671761559576e-01
7.306075659151700652e-01
7.218188765762323378e-01
6.893389377149408137e-01
6.973633931983186374e-01
6.969812762705387410e-01
6.836071837982422572e-01
6.923958731371799846e-01
6.774933129537638044e-01
7.080626671761559576e-01
7.023309132594574011e-01
6.740542606037447371e-01
6.774933129537638044e-01
6.637371035536874242e-01
6.637371035536874242e-01
6.576232327092089713e-01
6.759648452426442189e-01
6.805502483760030863e-01
6.923958731371799846e-01
6.774933129537638044e-01
6.851356515093618427e-01
6.560947649980893859e-01
6.897210546427207101e-01
6.679403897592662842e-01
6.442491402369124875e-01
6.545662972869698004e-01
6.438670233091325912e-01
6.790217806648835008e-01
6.591517004203286678e-01
6.285823461979365145e-01
6.683225066870462916e-01
6.388995032479939384e-01
6.224684753534581727e-01
6.255254107756973436e-01
6.209400076423385872e-01
6.526557126480703186e-01
6.606801681314482533e-01
6.236148261367978618e-01
6.178830722200993053e-01
6.381352693924340347e-01
6.453954910202521766e-01
6.175009552923194089e-01
6.178830722200993053e-01
6.178830722200993053e-01
6.343141001146350710e-01
6.087122659533816815e-01
6.270538784868169291e-01
6.037447458922430288e-01
6.190294230034391054e-01
6.087122659533816815e-01
6.132976690867405489e-01
6.037447458922430288e-01
6.010699273977837542e-01
5.918991211310661305e-01
6.255254107756973436e-01
6.301108139090562110e-01
5.899885364921666486e-01
5.888421857088268485e-01
6.239969430645777582e-01
5.838746656476881958e-01
5.964845242644248868e-01
5.915170042032862341e-01
5.918991211310661305e-01
6.132976690867405489e-01
5.750859763087504684e-01
5.747038593809705720e-01
6.071837982422620961e-01
6.022162781811234433e-01
5.873137179977072631e-01
5.720290408865112974e-01
5.934275888421857159e-01
5.685899885364921191e-01
5.594191822697746064e-01
5.521589606419564644e-01
5.506304929308368790e-01
5.655330531142529482e-01
5.487199082919372861e-01
5.521589606419564644e-01
5.567443637753152208e-01
5.781429117309896393e-01
5.659151700420328446e-01
5.368742835307603878e-01
5.364921666029804914e-01
5.261750095529231785e-01
5.277034772640427640e-01
5.185326709973251402e-01
5.552158960641956353e-01
5.105082155139473166e-01
5.154757355750859693e-01
5.364921666029804914e-01
5.292319449751623495e-01
5.212074894917845258e-01
5.108903324417272129e-01
5.292319449751623495e-01
4.986625907527703627e-01
5.235001910584639040e-01
5.200611387084448367e-01
5.047764615972487601e-01
5.181505540695452439e-01
5.170042032862055548e-01
4.925487199082919099e-01
5.001910584638900037e-01
4.711501719526174914e-01
5.013374092472296928e-01
4.696217042414979059e-01
4.650363011081390940e-01
4.940771876194115508e-01
4.650363011081390940e-01
4.849063813526939271e-01
4.444019870080244683e-01
4.405808177302254491e-01
4.512800917080626584e-01
4.573939625525410557e-01
4.329384791746274108e-01
4.650363011081390940e-01
4.466946885747038465e-01
4.279709591134887026e-01
4.252961406190294280e-01
4.375238823079862227e-01
4.585403133358808003e-01
4.554833779136415739e-01
4.508979747802827620e-01
4.421092854413450346e-01
4.115399312189529923e-01
4.115399312189529923e-01
4.252961406190294280e-01
4.359954145968666372e-01
4.161253343523118042e-01
4.065724111578142841e-01
3.916698509743981593e-01
3.912877340466182630e-01
4.252961406190294280e-01
4.069545280855941805e-01
3.958731371799770749e-01
3.947267863966373858e-01
3.855559801299197620e-01
4.207107374856706161e-01
3.928162017577378484e-01
3.989300726022163013e-01
4.176538020634313897e-01
4.081008788689338695e-01
3.763851738632021382e-01
4.145968666411922188e-01
4.126862820022926814e-01
3.989300726022163013e-01
3.989300726022163013e-01
3.779136415743217237e-01
3.771494077187619309e-01
3.702713030187237409e-01
3.683607183798242035e-01
3.748567061520825527e-01
3.977837218188765567e-01
3.916698509743981593e-01
3.717997707298433263e-01
3.687428353076040999e-01
3.901413832632785739e-01
4.038975926633550095e-01
4.035154757355751132e-01
3.977837218188765567e-01
3.717997707298433263e-01
3.962552541077569712e-01
3.702713030187237409e-01
3.855559801299197620e-01
3.794421092854413646e-01
3.714176538020634299e-01
4.023691249522353686e-01
3.656858998853649290e-01
4.050439434466946986e-01
4.035154757355751132e-01
3.916698509743981593e-01
4.027512418800152649e-01
3.683607183798242035e-01
3.668322506687046181e-01
3.748567061520825527e-01
3.748567061520825527e-01
3.916698509743981593e-01
4.100114635078334069e-01
4.035154757355751132e-01
3.752388230798624491e-01
3.790599923576614683e-01
3.870844478410393474e-01
3.763851738632021382e-01
4.084829957967138214e-01
4.142147497134123224e-01
3.779136415743217237e-01
3.947267863966373858e-01
3.805884600687810537e-01
4.100114635078334069e-01
3.993121895299961976e-01
3.790599923576614683e-01
4.161253343523118042e-01
3.962552541077569712e-01
3.931983186855177448e-01
3.897592663354986775e-01
3.840275124188001765e-01
4.222392051967902016e-01
4.149789835689721151e-01
4.314100114635078254e-01
3.870844478410393474e-01
4.237676729079098426e-01
4.008406572411157831e-01
4.111578142911730960e-01
4.069545280855941805e-01
3.931983186855177448e-01
3.989300726022163013e-01
4.237676729079098426e-01
3.977837218188765567e-01
4.069545280855941805e-01
4.111578142911730960e-01
4.149789835689721151e-01
3.912877340466182630e-01
4.241497898356897389e-01
3.931983186855177448e-01
4.310278945357279290e-01
3.947267863966373858e-01
4.157432174245319079e-01
3.912877340466182630e-01
4.161253343523118042e-01
3.989300726022163013e-01
4.023691249522353686e-01
4.298815437523882399e-01
3.993121895299961976e-01
4.054260603744745950e-01
4.268246083301490135e-01
4.191822697745510307e-01
3.947267863966373858e-01
3.928162017577378484e-01
4.268246083301490135e-01
3.901413832632785739e-01
4.298815437523882399e-01
4.038975926633550095e-01
4.142147497134123224e-01
3.855559801299197620e-01
4.081008788689338695e-01
3.855559801299197620e-01
3.901413832632785739e-01
4.069545280855941805e-01
4.298815437523882399e-01
3.824990447076805355e-01
3.886129155521589329e-01
4.161253343523118042e-01
3.966373710355368676e-01
3.977837218188765567e-01
4.054260603744745950e-01
4.111578142911730960e-01
4.019870080244554722e-01
3.790599923576614683e-01
3.851738632021398656e-01
4.050439434466946986e-01
4.023691249522353686e-01
3.714176538020634299e-01
3.748567061520825527e-01
4.084829957967138214e-01
4.069545280855941805e-01
4.004585403133358867e-01
3.683607183798242035e-01
3.886129155521589329e-01
3.962552541077569712e-01
4.073366450133740768e-01
3.752388230798624491e-01
3.775315246465418273e-01
3.748567061520825527e-01
3.809705769965609501e-01
3.824990447076805355e-01
3.717997707298433263e-01
3.733282384409629118e-01
3.889950324799388848e-01
3.729461215131830154e-01
3.534581581964080788e-01
3.687428353076040999e-01
3.748567061520825527e-01
3.840275124188001765e-01
3.530760412686281824e-01
3.576614444019869943e-01
3.626289644631257025e-01
3.790599923576614683e-01
3.630110813909055989e-01
3.886129155521589329e-01
3.515475735575085969e-01
3.546045089797478234e-01
3.565150936186473052e-01
3.824990447076805355e-01
3.702713030187237409e-01
3.534581581964080788e-01
3.683607183798242035e-01
3.653037829575850326e-01
3.320596102407336603e-01
3.504012227741689078e-01
3.607183798242262207e-01
3.469621704241497850e-01
3.500191058463890115e-01
3.213603362628964510e-01
3.534581581964080788e-01
3.565150936186473052e-01
3.274742071073748484e-01
3.255636224684753666e-01
3.488727550630492669e-01
3.290026748184944339e-01
3.473442873519296814e-01
3.121895299961788273e-01
3.427588842185708695e-01
3.442873519296905105e-01
3.137179977072984127e-01
3.259457393962552629e-01
3.133358807795185164e-01
3.377913641574321613e-01
3.014902560183416180e-01
3.439052350019105586e-01
3.270920901795949520e-01
2.984333205961023916e-01
3.320596102407336603e-01
3.121895299961788273e-01
3.301490256018341785e-01
3.335880779518532457e-01
3.014902560183416180e-01
3.240351547573557256e-01
3.121895299961788273e-01
2.938479174627435797e-01
3.244172716851356775e-01
2.969048528849828061e-01
3.194497516239969692e-01
3.209782193351165547e-01
3.167749331295376392e-01
3.209782193351165547e-01
2.827665265571264741e-01
2.938479174627435797e-01
2.877340466182651824e-01
2.823844096293465777e-01
3.148643484906381573e-01
2.739778372181887467e-01
2.789453572793274549e-01
2.705387848681696794e-01
2.751241880015284913e-01
2.969048528849828061e-01
2.755063049293083877e-01
3.060756591517004299e-01
2.873519296904852860e-01
2.969048528849828061e-01
3.011081390905617217e-01
2.984333205961023916e-01
3.091325945739396008e-01
2.709209017959495758e-01
2.674818494459304530e-01
2.919373328238440979e-01
2.873519296904852860e-01
2.892625143293847678e-01
2.602216278181123665e-01
2.785632403515475586e-01
2.602216278181123665e-01
2.571646923958731401e-01
2.751241880015284913e-01
2.877340466182651824e-01
2.525792892625143282e-01
2.521971723347344319e-01
2.510508215513947428e-01
2.506687046236148464e-01
2.888803974016048715e-01
2.525792892625143282e-01
2.800917080626671996e-01
2.751241880015284913e-01
2.846771111960260114e-01
2.583110431792128292e-01
2.705387848681696794e-01
2.793274742071073513e-01
2.632785632403515375e-01
2.426442491402369117e-01
2.567825754680932437e-01
2.384409629346579962e-01
2.751241880015284913e-01
2.403515475735575058e-01
2.430263660680168081e-01
2.693924340848299348e-01
2.372946121513183071e-01
2.430263660680168081e-01
2.388230798624378926e-01
2.449369507069163177e-01
2.495223538402751295e-01
2.770347726404279731e-01
2.571646923958731401e-01
2.464654184180359309e-01
2.403515475735575058e-01
2.724493695070691612e-01
2.403515475735575058e-01
2.414978983568972226e-01
2.315628582346198061e-01
2.418800152846771190e-01
2.674818494459304530e-01
2.659533817348108675e-01
2.277416889568207869e-01
2.556362246847535546e-01
2.250668704623614846e-01
2.342376767290791084e-01
2.552541077569736583e-01
2.552541077569736583e-01
2.491402369124952332e-01
2.693924340848299348e-01
2.552541077569736583e-01
2.369124952235384107e-01
2.403515475735575058e-01
2.338555598012991843e-01
2.418800152846771190e-01
2.414978983568972226e-01
2.674818494459304530e-01
2.541077569736339137e-01
2.613679786014520556e-01
2.495223538402751295e-01
2.281238058846006833e-01
2.567825754680932437e-01
2.338555598012991843e-01
2.571646923958731401e-01
2.537256400458540173e-01
2.292701566679404002e-01
2.617500955292319520e-01
2.296522735957202965e-01
2.479938861291555163e-01
2.292701566679404002e-01
2.414978983568972226e-01
2.586931601069927256e-01
2.342376767290791084e-01
2.449369507069163177e-01
2.510508215513947428e-01
2.678639663737103493e-01
2.296522735957202965e-01
2.269774551012609942e-01
2.361482613679785902e-01
2.296522735957202965e-01
2.613679786014520556e-01
2.598395108903324147e-01
2.353840275124187975e-01
2.567825754680932437e-01
2.567825754680932437e-01
2.552541077569736583e-01
2.644249140236912266e-01
2.353840275124187975e-01
2.464654184180359309e-01
2.678639663737103493e-01
2.525792892625143282e-01
2.315628582346198061e-01
2.327092090179594952e-01
2.602216278181123665e-01
2.720672525792892649e-01
2.617500955292319520e-01
2.342376767290791084e-01
2.353840275124187975e-01
2.300343905235001929e-01
2.388230798624378926e-01
2.537256400458540173e-01
2.648070309514711229e-01
2.262132212457011737e-01
2.613679786014520556e-01
2.384409629346579962e-01
2.403515475735575058e-01
2.311807413068398820e-01
2.277416889568207869e-01
2.510508215513947428e-01
2.648070309514711229e-01
2.323270920901795988e-01
2.617500955292319520e-01
2.281238058846006833e-01
2.296522735957202965e-01
2.323270920901795988e-01
2.296522735957202965e-01
2.556362246847535546e-01
2.476117692013756200e-01
2.311807413068398820e-01
2.323270920901795988e-01
2.323270920901795988e-01
2.464654184180359309e-01
2.200993504012227764e-01
2.602216278181123665e-01
2.495223538402751295e-01
2.537256400458540173e-01
2.369124952235384107e-01
2.281238058846006833e-01
2.220099350401222860e-01
2.537256400458540173e-01
2.399694306457776094e-01
2.506687046236148464e-01
2.250668704623614846e-01
2.590752770347726219e-01
2.277416889568207869e-01
2.628964463125716411e-01
2.265953381734810979e-01
2.632785632403515375e-01
2.323270920901795988e-01
2.598395108903324147e-01
2.602216278181123665e-01
2.571646923958731401e-01
2.342376767290791084e-01
2.372946121513183071e-01
2.357661444401986939e-01
2.552541077569736583e-01
2.342376767290791084e-01
2.246847535345815883e-01
2.552541077569736583e-01
2.254489873901413810e-01
2.586931601069927256e-01
2.231562858234619751e-01
2.644249140236912266e-01
2.602216278181123665e-01
2.479938861291555163e-01
2.602216278181123665e-01
2.495223538402751295e-01
2.265953381734810979e-01
2.292701566679404002e-01
2.254489873901413810e-01
2.525792892625143282e-01
2.220099350401222860e-01
2.556362246847535546e-01
2.521971723347344319e-01
2.380588460068780998e-01
2.388230798624378926e-01
2.220099350401222860e-01
2.189529996178830595e-01
2.556362246847535546e-01
2.552541077569736583e-01
2.193351165456629837e-01
2.399694306457776094e-01
2.541077569736339137e-01
2.388230798624378926e-01
2.311807413068398820e-01
2.434084829957967044e-01
2.434084829957967044e-01
2.369124952235384107e-01
2.204814673290026728e-01
2.204814673290026728e-01
2.479938861291555163e-01
2.479938861291555163e-01
2.479938861291555163e-01
2.495223538402751295e-01
2.353840275124187975e-01
2.178066488345433704e-01
2.220099350401222860e-01
2.113106610622850490e-01
2.521971723347344319e-01
2.235384027512418714e-01
2.139854795567443513e-01
2.281238058846006833e-01
2.537256400458540173e-01
2.510508215513947428e-01
2.185708826901031632e-01
2.262132212457011737e-01
2.174245319067634741e-01
2.495223538402751295e-01
2.342376767290791084e-01
2.281238058846006833e-01
2.082537256400458503e-01
2.185708826901031632e-01
2.292701566679404002e-01
2.464654184180359309e-01
2.113106610622850490e-01
2.204814673290026728e-01
2.071073748567061612e-01
2.430263660680168081e-01
2.434084829957967044e-01
2.479938861291555163e-01
2.078716087122659539e-01
2.460833014902560067e-01
2.369124952235384107e-01
2.216278181123423896e-01
2.495223538402751295e-01
2.464654184180359309e-01
2.464654184180359309e-01
2.403515475735575058e-01
2.327092090179594952e-01
2.353840275124187975e-01
2.139854795567443513e-01
1.975544516622086411e-01
2.189529996178830595e-01
2.002292701566679434e-01
2.449369507069163177e-01
2.021398547955674529e-01
2.032862055789071420e-01
2.220099350401222860e-01
2.384409629346579962e-01
2.097821933511654635e-01
2.082537256400458503e-01
2.006113870844478397e-01
2.143675964845242754e-01
2.128391287734046622e-01
2.051967902178066516e-01
2.327092090179594952e-01
2.193351165456629837e-01
2.021398547955674529e-01
2.372946121513183071e-01
2.174245319067634741e-01
2.158960641956438609e-01
2.235384027512418714e-01
2.082537256400458503e-01
2.189529996178830595e-01
2.235384027512418714e-01
2.403515475735575058e-01
2.434084829957967044e-01
2.250668704623614846e-01
2.174245319067634741e-01
2.158960641956438609e-01
2.495223538402751295e-01
2.285059228123805797e-01
2.277416889568207869e-01
2.556362246847535546e-01
2.384409629346579962e-01
2.369124952235384107e-01
2.231562858234619751e-01
2.617500955292319520e-01
2.445548337791364213e-01
2.311807413068398820e-01
2.357661444401986939e-01
2.586931601069927256e-01
2.766526557126480768e-01
2.495223538402751295e-01
2.602216278181123665e-01
2.919373328238440979e-01
2.720672525792892649e-01
2.888803974016048715e-01
3.076041268628200154e-01
2.953763851738632207e-01
3.194497516239969692e-01
3.045471914405808445e-01
3.377913641574321613e-01
3.076041268628200154e-01
3.213603362628964510e-01
3.183034008406572246e-01
3.259457393962552629e-01
3.714176538020634299e-01
3.618647306075659098e-01
3.519296904852884933e-01
3.794421092854413646e-01
3.993121895299961976e-01
3.794421092854413646e-01
4.252961406190294280e-01
4.081008788689338695e-01
4.069545280855941805e-01
4.497516239969430729e-01
4.405808177302254491e-01
4.738249904470768215e-01
4.493695070691631765e-01
4.554833779136415739e-01
4.998089415361100518e-01
5.196790217806648293e-01
5.231180741306840076e-01
5.307604126862820459e-01
5.471914405808177007e-01
5.200611387084448367e-01
5.292319449751623495e-01
5.536874283530760499e-01
5.735575085976308829e-01
5.907527703477264414e-01
5.739396255254107793e-01
6.159724875811998235e-01
5.918991211310661305e-01
6.010699273977837542e-01
6.144440198700802380e-01
6.545662972869698004e-01
6.484524264424913476e-01
6.664119220481466987e-01
6.740542606037447371e-01
6.709973251815055661e-01
7.065341994650362611e-01
7.004203286205579193e-01
7.183798242262132705e-01
7.034772640427970902e-01
7.034772640427970902e-01
7.371035536874283034e-01
7.294612151318303761e-01
7.264042797095910942e-01
7.520061138708444837e-01
7.611769201375621074e-01
7.581199847153229365e-01
7.856324035154756968e-01
7.627053878486816929e-01
7.905999235766144606e-01
7.737867787542987985e-01
8.012991975544516698e-01
8.196408100878869174e-01
8.043561329766908408e-01
8.196408100878869174e-01
8.398930072602216468e-01
8.471532288880397887e-01
8.517386320213985451e-01
8.284294994268246448e-01
8.318685517768437121e-01
8.452426442491401959e-01
8.700802445548337927e-01
8.349254871990828830e-01
8.395108903324417504e-01
8.513565150936186487e-01
8.742835307604126527e-01
8.471532288880397887e-01
8.788689338937715201e-01
8.868933893771494548e-01
8.609094382881161689e-01
8.773404661826519346e-01
8.624379059992357544e-01
8.823079862437905874e-01
8.761941153993121345e-01
8.712265953381734818e-01
8.899503247993886257e-01
9.109667558272831478e-01
8.991211310661062495e-01
8.884218570882690402e-01
8.761941153993121345e-01
8.991211310661062495e-01
8.834543370271302765e-01
8.868933893771494548e-01
8.792510508215514164e-01
9.109667558272831478e-01
8.716087122659533781e-01
8.930072602216277966e-01
9.006495987772258349e-01
8.838364539549101728e-01
9.006495987772258349e-01
9.067634696217042878e-01
8.853649216660297583e-01
8.727550630492930672e-01
8.807795185326710019e-01
8.761941153993121345e-01
8.930072602216277966e-01
8.803974016048911055e-01
8.838364539549101728e-01
8.930072602216277966e-01
8.895682078716087293e-01
8.727550630492930672e-01
8.563240351547573015e-01
8.700802445548337927e-01
8.865112724493695584e-01
8.696981276270538963e-01
8.670233091325946218e-01
8.700802445548337927e-01
8.498280473824990633e-01
8.635842567825754434e-01
8.345433702713029867e-01
8.314864348490638157e-01
8.318685517768437121e-01
8.532670997325181306e-01
8.456247611769200923e-01
8.513565150936186487e-01
8.211692777990065029e-01
8.154375238823079464e-01
8.498280473824990633e-01
8.196408100878869174e-01
8.058846006878104262e-01
8.333970194879632976e-01
8.119984715322888791e-01
7.905999235766144606e-01
8.257546809323652592e-01
7.856324035154756968e-01
7.829575850210164223e-01
8.089415361100497082e-01
8.058846006878104262e-01
7.722583110431792131e-01
7.978601452044326026e-01
7.734046618265189021e-01
7.814291173098968368e-01
7.844860527321360077e-01
7.661444401987007602e-01
7.504776461597248982e-01
7.554451662208635510e-01
7.615590370653420038e-01
7.432174245319067563e-01
7.825754680932365259e-01
7.707298433320596276e-01
7.447458922430263417e-01
7.592663354986626256e-01
7.248758119984715087e-01
7.279327474207107906e-01
7.218188765762323378e-01
7.279327474207107906e-01
7.523882307986243800e-01
7.309896828429499616e-01
7.462743599541459272e-01
7.015666794038976084e-01
7.199082919373328560e-01
7.355750859763087179e-01
7.076805502483759502e-01
7.290790982040504797e-01
7.233473442873519232e-01
7.279327474207107906e-01
7.260221627818111978e-01
7.218188765762323378e-01
6.988918609094383338e-01
6.943064577760794664e-01
6.820787160871226718e-01
7.004203286205579193e-01
7.019487963316775048e-01
6.855177684371417390e-01
6.648834543370271133e-01
6.958349254871990519e-01
6.897210546427207101e-01
6.591517004203286678e-01
6.790217806648835008e-01
6.832250668704623608e-01
6.744363775315246334e-01
6.511272449369507331e-01
6.560947649980893859e-01
6.606801681314482533e-01
6.786396637371036045e-01
6.805502483760030863e-01
6.515093618647306295e-01
6.606801681314482533e-01
6.450133740924722803e-01
6.683225066870462916e-01
6.499808941536110440e-01
6.602980512036683569e-01
6.683225066870462916e-01
6.572411157814290750e-01
6.408100878868934203e-01
6.236148261367978618e-01
6.239969430645777582e-01
6.408100878868934203e-01
6.270538784868169291e-01
6.175009552923194089e-01
6.515093618647306295e-01
6.469239587313717621e-01
6.148261367978601344e-01
6.484524264424913476e-01
6.392816201757738348e-01
6.194115399312190018e-01
6.438670233091325912e-01
6.377531524646541383e-01
6.098586167367214816e-01
6.343141001146350710e-01
6.331677493312953819e-01
6.025983951089033397e-01
6.068016813144821997e-01
6.388995032479939384e-01
6.343141001146350710e-01
6.194115399312190018e-01
6.236148261367978618e-01
5.934275888421857159e-01
6.270538784868169291e-01
6.132976690867405489e-01
5.888421857088268485e-01
6.239969430645777582e-01
5.980129919755444723e-01
6.270538784868169291e-01
5.899885364921666486e-01
5.766144440198700538e-01
6.071837982422620961e-01
5.808177302254490249e-01
6.071837982422620961e-01
5.869316010699273667e-01
6.056553305311425106e-01
5.873137179977072631e-01
6.106228505922812744e-01
5.731753916698509865e-01
5.632403515475735700e-01
5.976308750477645759e-01
5.750859763087504684e-01
5.918991211310661305e-01
5.701184562476118156e-01
5.670615208253725337e-01
5.766144440198700538e-01
5.842567825754680921e-01
5.808177302254490249e-01
5.792892625143294394e-01
5.475735575085975970e-01
5.735575085976308829e-01
5.395491020252196623e-01
5.491020252197171825e-01
5.429881543752388406e-01
5.521589606419564644e-01
5.303782957585021496e-01
5.567443637753152208e-01
5.380206343141000769e-01
5.521589606419564644e-01
5.410775697363393588e-01
5.017195261750095892e-01
5.047764615972487601e-01
5.349636988918609060e-01
5.001910584638900037e-01
4.894917844860527389e-01
5.001910584638900037e-01
5.227359572029041113e-01
5.105082155139473166e-01
4.772640427970958887e-01
4.891096675582728426e-01
5.017195261750095892e-01
4.845242644249140307e-01
5.047764615972487601e-01
4.696217042414979059e-01
4.665647688192586795e-01
4.742071073748567178e-01
4.543370271303018848e-01
4.680932365303783205e-01
4.799388612915552188e-01
4.421092854413450346e-01
4.371417653802063263e-01
4.409629346580053455e-01
4.508979747802827620e-01
4.650363011081390940e-01
4.528085594191822438e-01
4.233855559801299462e-01
4.390523500191058637e-01
4.497516239969430729e-01
4.329384791746274108e-01
4.436377531524646756e-01
4.172716851356514933e-01
4.298815437523882399e-01
4.356132976690867409e-01
4.390523500191058637e-01
4.023691249522353686e-01
3.962552541077569712e-01
3.993121895299961976e-01
4.035154757355751132e-01
3.916698509743981593e-01
3.947267863966373858e-01
4.100114635078334069e-01
3.824990447076805355e-01
3.821169277799006392e-01
3.794421092854413646e-01
4.054260603744745950e-01
4.023691249522353686e-01
4.050439434466946986e-01
4.081008788689338695e-01
3.840275124188001765e-01
3.775315246465418273e-01
3.824990447076805355e-01
3.886129155521589329e-01
3.901413832632785739e-01
4.069545280855941805e-01
3.653037829575850326e-01
3.962552541077569712e-01
3.607183798242262207e-01
3.672143675964845144e-01
3.641574321742453435e-01
3.809705769965609501e-01
3.859380970576996583e-01
3.565150936186473052e-01
3.928162017577378484e-01
3.901413832632785739e-01
3.790599923576614683e-01
3.920519679021780557e-01
3.760030569354222418e-01
3.611004967520061171e-01
3.775315246465418273e-01
3.748567061520825527e-01
3.882307986243790365e-01
3.595720290408865316e-01
3.500191058463890115e-01
3.874665647688192438e-01
3.748567061520825527e-01
3.870844478410393474e-01
3.809705769965609501e-01
3.607183798242262207e-01
3.484906381352693705e-01
3.775315246465418273e-01
3.748567061520825527e-01
3.439052350019105586e-01
3.473442873519296814e-01
3.534581581964080788e-01
3.794421092854413646e-01
3.870844478410393474e-01
3.809705769965609501e-01
3.561329766908674088e-01
3.855559801299197620e-01
3.484906381352693705e-01
3.683607183798242035e-01
3.576614444019869943e-01
3.534581581964080788e-01
3.549866259075277197e-01
3.931983186855177448e-01
3.580435613297668906e-01
3.530760412686281824e-01
3.916698509743981593e-01
3.893771494077187811e-01
3.591899121131066352e-01
3.504012227741689078e-01
3.473442873519296814e-01
3.565150936186473052e-01
3.779136415743217237e-01
3.760030569354222418e-01
3.668322506687046181e-01
3.809705769965609501e-01
3.561329766908674088e-01
3.611004967520061171e-01
3.687428353076040999e-01
3.901413832632785739e-01
3.993121895299961976e-01
3.668322506687046181e-01
3.882307986243790365e-01
3.974016048910966603e-01
3.760030569354222418e-01
3.947267863966373858e-01
3.943446694688574894e-01
3.779136415743217237e-01
3.794421092854413646e-01
3.534581581964080788e-01
3.809705769965609501e-01
3.733282384409629118e-01
3.779136415743217237e-01
3.928162017577378484e-01
3.591899121131066352e-01
3.595720290408865316e-01
3.824990447076805355e-01
3.809705769965609501e-01
3.779136415743217237e-01
3.607183798242262207e-01
3.867023309132594511e-01
3.549866259075277197e-01
3.901413832632785739e-01
3.717997707298433263e-01
3.611004967520061171e-01
3.580435613297668906e-01
3.549866259075277197e-01
3.668322506687046181e-01
3.996943064577760940e-01
3.947267863966373858e-01
3.530760412686281824e-01
3.504012227741689078e-01
3.763851738632021382e-01
3.591899121131066352e-01
3.905235001910584702e-01
3.901413832632785739e-01
3.584256782575467870e-01
3.530760412686281824e-01
3.824990447076805355e-01
3.561329766908674088e-01
3.549866259075277197e-01
3.809705769965609501e-01
3.851738632021398656e-01
3.561329766908674088e-01
3.672143675964845144e-01
3.870844478410393474e-01
3.534581581964080788e-01
3.794421092854413646e-01
3.549866259075277197e-01
3.442873519296905105e-01
3.572793274742070979e-01
3.760030569354222418e-01
3.851738632021398656e-01
3.672143675964845144e-01
3.473442873519296814e-01
3.519296904852884933e-01
3.748567061520825527e-01
3.855559801299197620e-01
3.469621704241497850e-01
3.519296904852884933e-01
3.461979365685899923e-01
3.702713030187237409e-01
3.744745892243026564e-01
3.561329766908674088e-01
3.549866259075277197e-01
3.442873519296905105e-01
3.473442873519296814e-01
3.469621704241497850e-01
3.733282384409629118e-01
3.366450133740924722e-01
3.672143675964845144e-01
3.393198318685518022e-01
3.656858998853649290e-01
3.351165456629728867e-01
3.335880779518532457e-01
3.580435613297668906e-01
3.595720290408865316e-01
3.576614444019869943e-01
3.305311425296140748e-01
3.381734810852120576e-01
3.335880779518532457e-01
3.305311425296140748e-01
3.653037829575850326e-01
3.641574321742453435e-01
3.366450133740924722e-01
3.549866259075277197e-01
3.549866259075277197e-01
3.534581581964080788e-01
3.504012227741689078e-01
3.454337027130301996e-01
3.183034008406572246e-01
3.167749331295376392e-01
3.366450133740924722e-01
3.515475735575085969e-01
3.500191058463890115e-01
3.519296904852884933e-01
3.469621704241497850e-01
3.504012227741689078e-01
3.412304165074512841e-01
3.102789453572793454e-01
3.148643484906381573e-01
3.087504776461597045e-01
3.091325945739396008e-01
3.076041268628200154e-01
3.167749331295376392e-01
3.290026748184944339e-01
3.167749331295376392e-01
2.995796713794421362e-01
3.014902560183416180e-01
3.320596102407336603e-01
3.255636224684753666e-01
3.198318685517768656e-01
3.030187237294612035e-01
3.244172716851356775e-01
3.198318685517768656e-01
2.969048528849828061e-01
2.934658005349636833e-01
3.244172716851356775e-01
3.026366068016813071e-01
2.919373328238440979e-01
2.816201757737867850e-01
3.011081390905617217e-01
2.816201757737867850e-01
3.091325945739396008e-01
3.091325945739396008e-01
2.770347726404279731e-01
3.106610622850592418e-01
2.816201757737867850e-01
2.797095911348873032e-01
2.770347726404279731e-01
3.076041268628200154e-01
3.045471914405808445e-01
2.812380588460068886e-01
2.934658005349636833e-01
2.984333205961023916e-01
2.953763851738632207e-01
2.628964463125716411e-01
3.030187237294612035e-01
2.644249140236912266e-01
2.644249140236912266e-01
3.060756591517004299e-01
2.957585021016431170e-01
2.705387848681696794e-01
2.999617883072220326e-01
2.800917080626671996e-01
2.541077569736339137e-01
2.567825754680932437e-01
2.873519296904852860e-01
2.735957202904088503e-01
2.739778372181887467e-01
2.842949942682460596e-01
2.491402369124952332e-01
2.770347726404279731e-01
2.495223538402751295e-01
2.766526557126480768e-01
2.479938861291555163e-01
2.525792892625143282e-01
2.785632403515475586e-01
2.567825754680932437e-01
2.414978983568972226e-01
2.525792892625143282e-01
2.751241880015284913e-01
2.659533817348108675e-01
2.766526557126480768e-01
2.556362246847535546e-01
2.506687046236148464e-01
2.483760030569354127e-01
2.357661444401986939e-01
2.586931601069927256e-01
2.296522735957202965e-01
2.250668704623614846e-01
2.357661444401986939e-01
2.659533817348108675e-01
2.277416889568207869e-01
2.327092090179594952e-01
2.399694306457776094e-01
2.709209017959495758e-01
2.277416889568207869e-01
2.342376767290791084e-01
2.445548337791364213e-01
2.265953381734810979e-01
2.602216278181123665e-01
2.327092090179594952e-01
2.510508215513947428e-01
2.265953381734810979e-01
2.567825754680932437e-01
2.204814673290026728e-01
2.567825754680932437e-01
2.158960641956438609e-01
2.521971723347344319e-01
2.185708826901031632e-01
2.525792892625143282e-01
2.372946121513183071e-01
2.262132212457011737e-01
2.476117692013756200e-01
2.109285441345051526e-01
2.097821933511654635e-01
2.128391287734046622e-01
2.235384027512418714e-01
2.449369507069163177e-01
2.479938861291555163e-01
2.094000764233855671e-01
2.128391287734046622e-01
2.262132212457011737e-01
2.097821933511654635e-01
2.262132212457011737e-01
2.113106610622850490e-01
2.071073748567061612e-01
2.418800152846771190e-01
2.036683225066870384e-01
2.281238058846006833e-01
2.327092090179594952e-01
2.006113870844478397e-01
2.204814673290026728e-01
2.139854795567443513e-01
2.036683225066870384e-01
2.369124952235384107e-01
2.006113870844478397e-01
2.109285441345051526e-01
2.097821933511654635e-01
2.094000764233855671e-01
2.403515475735575058e-01
2.094000764233855671e-01
2.051967902178066516e-01
2.021398547955674529e-01
2.162781811234237572e-01
2.296522735957202965e-01
2.006113870844478397e-01
1.979365685899885374e-01
2.155139472678639645e-01
1.941153993121895183e-01
1.971723347344287447e-01
1.975544516622086411e-01
1.899121131066106305e-01
2.338555598012991843e-01
2.323270920901795988e-01
2.220099350401222860e-01
2.292701566679404002e-01
2.032862055789071420e-01
2.296522735957202965e-01
2.128391287734046622e-01
2.002292701566679434e-01
2.063431410011463407e-01
1.971723347344287447e-01
2.090179594956056430e-01
1.944975162399694424e-01
2.357661444401986939e-01
1.910584638899503196e-01
2.021398547955674529e-01
2.265953381734810979e-01
1.956438670233091315e-01
2.277416889568207869e-01
2.250668704623614846e-01
2.048146732900267553e-01
1.929690485288498292e-01
2.307986243790599856e-01
2.189529996178830595e-01
2.311807413068398820e-01
2.032862055789071420e-01
2.143675964845242754e-01
2.262132212457011737e-01
2.342376767290791084e-01
2.327092090179594952e-01
2.296522735957202965e-01
2.204814673290026728e-01
2.200993504012227764e-01
1.941153993121895183e-01
2.017577378677875566e-01
2.048146732900267553e-01
2.002292701566679434e-01
2.189529996178830595e-01
2.216278181123423896e-01
2.220099350401222860e-01
1.944975162399694424e-01
1.956438670233091315e-01
1.937332823844096219e-01
2.006113870844478397e-01
1.929690485288498292e-01
2.185708826901031632e-01
2.262132212457011737e-01
2.296522735957202965e-01
2.063431410011463407e-01
1.929690485288498292e-01
1.944975162399694424e-01
1.960259839510890278e-01
2.021398547955674529e-01
1.960259839510890278e-01
2.223920519679021823e-01
2.082537256400458503e-01
1.914405808177302160e-01
2.029040886511272457e-01
1.860909438288116113e-01
1.990829193733282265e-01
2.109285441345051526e-01
2.246847535345815883e-01
1.975544516622086411e-01
1.899121131066106305e-01
1.975544516622086411e-01
1.960259839510890278e-01
2.361482613679785902e-01
2.097821933511654635e-01
2.231562858234619751e-01
2.097821933511654635e-01
1.960259839510890278e-01
2.296522735957202965e-01
1.910584638899503196e-01
2.143675964845242754e-01
2.017577378677875566e-01
2.139854795567443513e-01
2.128391287734046622e-01
1.910584638899503196e-01
2.002292701566679434e-01
1.929690485288498292e-01
2.090179594956056430e-01
2.017577378677875566e-01
1.960259839510890278e-01
2.048146732900267553e-01
1.944975162399694424e-01
2.235384027512418714e-01
2.071073748567061612e-01
2.327092090179594952e-01
2.281238058846006833e-01
2.189529996178830595e-01
2.327092090179594952e-01
2.021398547955674529e-01
2.262132212457011737e-01
1.914405808177302160e-01
2.021398547955674529e-01
2.078716087122659539e-01
1.987008024455483302e-01
2.338555598012991843e-01
1.925869316010699328e-01
2.082537256400458503e-01
2.002292701566679434e-01
2.250668704623614846e-01
2.063431410011463407e-01
2.372946121513183071e-01
2.403515475735575058e-01
2.403515475735575058e-01
1.960259839510890278e-01
2.036683225066870384e-01
2.094000764233855671e-01
2.342376767290791084e-01
1.990829193733282265e-01
2.220099350401222860e-01
2.357661444401986939e-01
2.036683225066870384e-01
2.327092090179594952e-01
2.017577378677875566e-01
2.246847535345815883e-01
2.051967902178066516e-01
2.021398547955674529e-01
2.220099350401222860e-01
2.323270920901795988e-01
1.941153993121895183e-01
2.357661444401986939e-01
2.327092090179594952e-01
2.250668704623614846e-01
2.369124952235384107e-01
2.094000764233855671e-01
1.975544516622086411e-01
2.132212457011845586e-01
1.987008024455483302e-01
2.353840275124187975e-01
2.139854795567443513e-01
2.342376767290791084e-01
2.109285441345051526e-01
2.051967902178066516e-01
2.032862055789071420e-01
2.006113870844478397e-01
2.342376767290791084e-01
2.036683225066870384e-01
2.036683225066870384e-01
1.987008024455483302e-01
2.281238058846006833e-01
2.338555598012991843e-01
2.139854795567443513e-01
2.342376767290791084e-01
1.960259839510890278e-01
1.960259839510890278e-01
2.346197936568590048e-01
1.956438670233091315e-01
2.369124952235384107e-01
2.357661444401986939e-01
2.174245319067634741e-01
2.281238058846006833e-01
2.051967902178066516e-01
2.170424149789835777e-01
2.094000764233855671e-01
2.246847535345815883e-01
2.281238058846006833e-01
1.960259839510890278e-01
2.212457011845624655e-01
2.185708826901031632e-01
2.296522735957202965e-01
2.094000764233855671e-01
2.158960641956438609e-01
1.960259839510890278e-01
2.307986243790599856e-01
2.235384027512418714e-01
2.021398547955674529e-01
2.006113870844478397e-01
2.262132212457011737e-01
2.189529996178830595e-01
2.189529996178830595e-01
2.124570118456247658e-01
1.987008024455483302e-01
1.960259839510890278e-01
2.082537256400458503e-01
1.933511654566297255e-01
2.296522735957202965e-01
1.960259839510890278e-01
1.914405808177302160e-01
2.036683225066870384e-01
1.990829193733282265e-01
1.941153993121895183e-01
1.971723347344287447e-01
2.357661444401986939e-01
2.006113870844478397e-01
2.281238058846006833e-01
2.338555598012991843e-01
2.078716087122659539e-01
2.143675964845242754e-01
2.384409629346579962e-01
2.032862055789071420e-01
2.128391287734046622e-01
2.414978983568972226e-01
2.414978983568972226e-01
2.109285441345051526e-01
2.434084829957967044e-01
2.055789071455865480e-01
2.464654184180359309e-01
2.372946121513183071e-01
2.357661444401986939e-01
2.155139472678639645e-01
2.434084829957967044e-01
2.510508215513947428e-01
2.430263660680168081e-01
2.510508215513947428e-01
2.476117692013756200e-01
2.709209017959495758e-01
