3.844096293465800729e-01
3.668322506687046181e-01
3.882307986243790365e-01
3.519296904852884933e-01
3.805884600687810537e-01
3.668322506687046181e-01
3.427588842185708695e-01
3.458158196408100959e-01
3.381734810852120576e-01
3.534581581964080788e-01
3.366450133740924722e-01
3.534581581964080788e-01
3.534581581964080788e-01
3.607183798242262207e-01
3.332059610240733494e-01
3.733282384409629118e-01
3.473442873519296814e-01
3.290026748184944339e-01
3.549866259075277197e-01
3.397019487963316986e-01
3.427588842185708695e-01
3.362628964463125758e-01
3.259457393962552629e-01
3.656858998853649290e-01
3.320596102407336603e-01
3.244172716851356775e-01
3.611004967520061171e-01
3.458158196408100959e-01
3.622468475353458062e-01
3.637753152464653916e-01
3.244172716851356775e-01
3.274742071073748484e-01
3.362628964463125758e-01
3.611004967520061171e-01
3.488727550630492669e-01
3.202139854795567619e-01
3.366450133740924722e-01
3.534581581964080788e-01
3.163928162017577428e-01
3.504012227741689078e-01
3.549866259075277197e-01
3.305311425296140748e-01
3.110431792128391382e-01
3.274742071073748484e-01
3.137179977072984127e-01
3.320596102407336603e-01
3.469621704241497850e-01
3.274742071073748484e-01
3.091325945739396008e-01
3.072220099350401190e-01
3.454337027130301996e-01
3.335880779518532457e-01
3.397019487963316986e-01
3.351165456629728867e-01
3.351165456629728867e-01
3.194497516239969692e-01
2.923194497516239942e-01
3.045471914405808445e-01
2.923194497516239942e-01
2.949942682460833243e-01
2.904088651127245124e-01
2.888803974016048715e-01
2.934658005349636833e-01
3.141001146350783091e-01
3.152464654184180537e-01
2.770347726404279731e-01
2.888803974016048715e-01
2.831486434849063705e-01
2.659533817348108675e-01
3.091325945739396008e-01
2.724493695070691612e-01
2.842949942682460596e-01
2.904088651127245124e-01
2.892625143293847678e-01
2.888803974016048715e-01
2.770347726404279731e-01
2.938479174627435797e-01
2.525792892625143282e-01
2.537256400458540173e-01
2.800917080626671996e-01
2.491402369124952332e-01
2.659533817348108675e-01
2.858234619793657005e-01
2.495223538402751295e-01
2.831486434849063705e-01
2.816201757737867850e-01
2.648070309514711229e-01
2.529614061902942246e-01
2.369124952235384107e-01
2.770347726404279731e-01
2.518150554069545355e-01
2.430263660680168081e-01
2.693924340848299348e-01
2.311807413068398820e-01
2.506687046236148464e-01
2.693924340848299348e-01
2.602216278181123665e-01
2.292701566679404002e-01
2.403515475735575058e-01
2.434084829957967044e-01
2.200993504012227764e-01
2.571646923958731401e-01
2.583110431792128292e-01
2.174245319067634741e-01
2.323270920901795988e-01
2.372946121513183071e-01
2.476117692013756200e-01
2.602216278181123665e-01
2.430263660680168081e-01
2.541077569736339137e-01
2.097821933511654635e-01
2.250668704623614846e-01
2.521971723347344319e-01
2.315628582346198061e-01
2.094000764233855671e-01
2.556362246847535546e-01
2.094000764233855671e-01
2.479938861291555163e-01
2.338555598012991843e-01
2.109285441345051526e-01
2.250668704623614846e-01
2.464654184180359309e-01
2.216278181123423896e-01
2.277416889568207869e-01
2.082537256400458503e-01
2.445548337791364213e-01
2.021398547955674529e-01
2.246847535345815883e-01
2.246847535345815883e-01
2.418800152846771190e-01
2.399694306457776094e-01
2.353840275124187975e-01
2.399694306457776094e-01
2.097821933511654635e-01
2.265953381734810979e-01
2.078716087122659539e-01
2.158960641956438609e-01
2.330913259457393916e-01
2.200993504012227764e-01
1.941153993121895183e-01
2.109285441345051526e-01
2.403515475735575058e-01
1.971723347344287447e-01
2.082537256400458503e-01
1.971723347344287447e-01
2.220099350401222860e-01
1.895299961788307341e-01
2.307986243790599856e-01
2.036683225066870384e-01
2.170424149789835777e-01
2.189529996178830595e-01
1.990829193733282265e-01
1.975544516622086411e-01
2.101643102789453599e-01
1.883836453954910173e-01
2.220099350401222860e-01
1.899121131066106305e-01
1.849445930454719222e-01
2.113106610622850490e-01
2.155139472678639645e-01
2.143675964845242754e-01
2.235384027512418714e-01
1.914405808177302160e-01
1.853267099732518186e-01
1.910584638899503196e-01
2.200993504012227764e-01
2.158960641956438609e-01
1.795949560565533176e-01
1.971723347344287447e-01
1.792128391287733935e-01
2.185708826901031632e-01
2.124570118456247658e-01
1.681314482231562879e-01
2.113106610622850490e-01
2.185708826901031632e-01
1.910584638899503196e-01
1.883836453954910173e-01
1.773022544898739117e-01
2.017577378677875566e-01
2.032862055789071420e-01
1.914405808177302160e-01
1.956438670233091315e-01
1.807413068398930067e-01
1.853267099732518186e-01
1.727168513565150998e-01
1.837982422621322054e-01
1.623996943064577869e-01
1.883836453954910173e-01
1.929690485288498292e-01
1.776843714176538080e-01
2.032862055789071420e-01
1.780664883454337044e-01
1.685135651509361843e-01
1.757737867787542985e-01
1.742453190676346853e-01
1.944975162399694424e-01
2.006113870844478397e-01
1.543752388230798522e-01
1.734810852120748925e-01
1.987008024455483302e-01
1.547573557508597764e-01
1.868551776843714041e-01
1.620175773786778628e-01
1.899121131066106305e-01
1.750095529231945057e-01
1.841803591899121018e-01
1.822697745510126199e-01
1.849445930454719222e-01
1.574321742453190787e-01
1.497898356897210681e-01
1.803591899121131104e-01
1.528467711119602668e-01
1.880015284677111209e-01
1.742453190676346853e-01
1.471150171952617380e-01
1.635460450897974760e-01
1.547573557508597764e-01
1.410011463507833407e-01
1.329766908674054338e-01
1.608712265953381737e-01
1.406190294230034443e-01
1.364157432174245288e-01
1.299197554451662073e-01
1.623996943064577869e-01
1.486434849063813513e-01
1.440580817730225394e-01
1.608712265953381737e-01
1.364157432174245288e-01
1.222774168895682106e-01
1.562858234619793618e-01
1.241880015284677063e-01
1.364157432174245288e-01
1.379442109285441420e-01
1.501719526175009645e-01
1.559037065341994654e-01
1.562858234619793618e-01
1.238058846006878100e-01
1.192204814673289981e-01
1.196025983951089083e-01
1.226595338173481070e-01
1.268628200229270087e-01
1.547573557508597764e-01
1.165456629728696958e-01
1.459686664119220489e-01
1.150171952617500964e-01
1.425296140619029539e-01
1.085212074894917889e-01
1.532288880397401631e-01
1.394726786396637275e-01
1.383263278563240384e-01
1.272449369507069050e-01
1.440580817730225394e-01
1.131066106228505869e-01
1.452044325563622562e-01
1.131066106228505869e-01
1.528467711119602668e-01
1.104317921283912846e-01
1.089033244172716852e-01
1.406190294230034443e-01
1.146350783339702001e-01
1.161635460450897994e-01
1.291555215896064146e-01
1.528467711119602668e-01
1.528467711119602668e-01
1.100496752006113882e-01
1.089033244172716852e-01
1.528467711119602668e-01
1.207489491784486113e-01
1.455865494841421526e-01
1.425296140619029539e-01
1.119602598395108839e-01
1.406190294230034443e-01
1.150171952617500964e-01
1.134887275506304971e-01
1.528467711119602668e-01
1.455865494841421526e-01
1.287734046618265182e-01
1.318303400840657169e-01
1.257164692395873196e-01
1.150171952617500964e-01
1.471150171952617380e-01
1.574321742453190787e-01
1.345051585785250192e-01
1.482613679786014549e-01
1.666029805120366747e-01
1.436759648452426430e-01
1.238058846006878100e-01
1.623996943064577869e-01
1.543752388230798522e-01
1.303018723729461315e-01
1.532288880397401631e-01
1.681314482231562879e-01
1.623996943064577869e-01
1.253343523118074232e-01
1.746274359954146094e-01
1.776843714176538080e-01
1.761559037065341948e-01
1.348872755063049156e-01
1.410011463507833407e-01
1.425296140619029539e-01
1.440580817730225394e-01
1.696599159342759011e-01
1.700420328620557975e-01
1.623996943064577869e-01
1.574321742453190787e-01
1.608712265953381737e-01
2.021398547955674529e-01
1.623996943064577869e-01
1.727168513565150998e-01
1.746274359954146094e-01
2.124570118456247658e-01
1.956438670233091315e-01
1.849445930454719222e-01
2.048146732900267553e-01
2.338555598012991843e-01
2.342376767290791084e-01
2.342376767290791084e-01
2.495223538402751295e-01
2.235384027512418714e-01
2.644249140236912266e-01
2.445548337791364213e-01
2.418800152846771190e-01
2.888803974016048715e-01
2.659533817348108675e-01
2.842949942682460596e-01
2.709209017959495758e-01
2.862055789071455969e-01
3.305311425296140748e-01
3.290026748184944339e-01
3.060756591517004299e-01
3.576614444019869943e-01
3.672143675964845144e-01
3.813526939243408465e-01
3.488727550630492669e-01
3.824990447076805355e-01
3.683607183798242035e-01
4.038975926633550095e-01
4.298815437523882399e-01
4.233855559801299462e-01
4.340848299579671554e-01
4.573939625525410557e-01
4.314100114635078254e-01
4.497516239969430729e-01
4.864348490638135125e-01
4.833779136415743416e-01
4.776461597248757851e-01
5.246465418418035931e-01
5.047764615972487601e-01
5.154757355750859693e-01
5.288498280473824531e-01
5.735575085976308829e-01
5.609476499808941918e-01
5.964845242644248868e-01
5.670615208253725337e-01
5.838746656476881958e-01
5.811998471532289212e-01
6.362246847535345529e-01
6.469239587313717621e-01
6.071837982422620961e-01
6.285823461979365145e-01
6.679403897592662842e-01
6.388995032479939384e-01
6.469239587313717621e-01
6.954528085594191555e-01
6.954528085594191555e-01
6.836071837982422572e-01
7.065341994650362611e-01
7.172334734428734704e-01
7.157050057317538849e-01
6.943064577760794664e-01
7.264042797095910942e-01
7.065341994650362611e-01
7.264042797095910942e-01
7.523882307986243800e-01
7.390141383263278962e-01
7.290790982040504797e-01
7.646159724875811747e-01
7.749331295376384876e-01
7.382499044707681035e-01
7.661444401987007602e-01
7.860145204432555932e-01
7.447458922430263417e-01
7.875429881543752897e-01
7.554451662208635510e-01
7.703477264042797312e-01
7.722583110431792131e-01
7.585021016431028329e-01
7.615590370653420038e-01
7.646159724875811747e-01
7.860145204432555932e-01
7.997707298433320844e-01
8.028276652655712553e-01
7.692013756209400421e-01
7.661444401987007602e-01
8.085594191822698118e-01
7.783721818876576659e-01
7.718761941153993167e-01
8.119984715322888791e-01
7.779900649598777695e-01
7.825754680932365259e-01
7.825754680932365259e-01
7.764615972487580731e-01
7.661444401987007602e-01
7.783721818876576659e-01
7.963316774933129061e-01
8.009170806266717735e-01
7.630875047764615893e-01
7.737867787542987985e-01
7.585021016431028329e-01
7.970959113488728098e-01
7.493312953763852091e-01
7.657623232709208638e-01
7.615590370653420038e-01
7.462743599541459272e-01
7.795185326709973550e-01
7.795185326709973550e-01
7.523882307986243800e-01
7.646159724875811747e-01
7.753152464654183840e-01
7.325181505540695470e-01
7.585021016431028329e-01
7.279327474207107906e-01
7.672907909820404493e-01
7.722583110431792131e-01
7.600305693542224184e-01
7.355750859763087179e-01
7.294612151318303761e-01
7.111196025983951285e-01
7.172334734428734704e-01
7.462743599541459272e-01
7.141765380206342995e-01
7.095911348872755431e-01
7.294612151318303761e-01
7.447458922430263417e-01
7.080626671761559576e-01
7.004203286205579193e-01
7.351929690485288216e-01
7.351929690485288216e-01
7.218188765762323378e-01
6.881925869316011246e-01
7.283148643484906870e-01
6.927779900649598810e-01
7.111196025983951285e-01
7.015666794038976084e-01
6.759648452426442189e-01
7.157050057317538849e-01
6.744363775315246334e-01
6.988918609094383338e-01
7.050057317539166757e-01
7.080626671761559576e-01
6.713794421092854625e-01
6.717615590370653589e-01
6.683225066870462916e-01
6.912495223538402955e-01
6.652655712648070097e-01
6.870462361482613245e-01
6.740542606037447371e-01
6.709973251815055661e-01
6.453954910202521766e-01
6.690867405426060843e-01
6.503630110813909404e-01
6.713794421092854625e-01
6.755827283148643225e-01
6.511272449369507331e-01
6.495987772258311477e-01
6.453954910202521766e-01
6.362246847535345529e-01
6.618265189147879424e-01
6.648834543370271133e-01
6.729079098204050480e-01
6.392816201757738348e-01
6.713794421092854625e-01
6.664119220481466987e-01
6.606801681314482533e-01
6.239969430645777582e-01
6.301108139090562110e-01
6.228505922812380691e-01
6.209400076423385872e-01
6.499808941536110440e-01
6.331677493312953819e-01
6.366068016813144492e-01
6.132976690867405489e-01
6.560947649980893859e-01
6.572411157814290750e-01
6.530378295758502150e-01
6.331677493312953819e-01
6.327856324035154856e-01
6.148261367978601344e-01
6.113870844478410671e-01
6.190294230034391054e-01
6.499808941536110440e-01
6.010699273977837542e-01
6.087122659533816815e-01
6.408100878868934203e-01
6.205578907145586909e-01
6.006878104700038579e-01
6.045089797478028215e-01
6.228505922812380691e-01
6.251432938479174473e-01
6.251432938479174473e-01
6.392816201757738348e-01
6.159724875811998235e-01
6.289644631257165219e-01
6.358425678257546565e-01
6.083301490256017852e-01
5.949560565533053014e-01
6.209400076423385872e-01
5.888421857088268485e-01
6.117692013756209635e-01
5.888421857088268485e-01
6.194115399312190018e-01
5.938097057699656123e-01
5.857852502865876776e-01
6.087122659533816815e-01
5.854031333588077812e-01
5.857852502865876776e-01
5.766144440198700538e-01
6.037447458922430288e-01
6.025983951089033397e-01
5.674436377531524300e-01
6.025983951089033397e-01
5.842567825754680921e-01
5.899885364921666486e-01
5.628582346197936737e-01
5.598012991975545027e-01
5.796713794421093358e-01
5.949560565533053014e-01
5.521589606419564644e-01
5.827283148643485067e-01
5.735575085976308829e-01
5.491020252197171825e-01
5.766144440198700538e-01
5.750859763087504684e-01
5.720290408865112974e-01
5.338173481085212169e-01
5.368742835307603878e-01
5.319067634696217350e-01
5.613297669086740882e-01
5.231180741306840076e-01
5.552158960641956353e-01
5.368742835307603878e-01
5.441345051585785297e-01
5.242644249140236967e-01
5.292319449751623495e-01
5.154757355750859693e-01
5.032479938861291746e-01
4.986625907527703627e-01
5.074512800917080346e-01
5.013374092472296928e-01
5.257928926251432822e-01
5.017195261750095892e-01
4.833779136415743416e-01
5.063049293083683455e-01
4.768819258693159924e-01
5.028658769583492782e-01
5.001910584638900037e-01
4.738249904470768215e-01
4.814673290026748043e-01
4.833779136415743416e-01
4.986625907527703627e-01
4.768819258693159924e-01
4.696217042414979059e-01
4.512800917080626584e-01
4.753534581581964069e-01
4.845242644249140307e-01
4.463125716469239501e-01
4.405808177302254491e-01
4.463125716469239501e-01
4.405808177302254491e-01
4.340848299579671554e-01
4.432556362246847792e-01
4.497516239969430729e-01
4.722965227359571805e-01
4.310278945357279290e-01
4.249140236912495316e-01
4.466946885747038465e-01
4.604508979747802822e-01
4.543370271303018848e-01
4.405808177302254491e-01
4.161253343523118042e-01
4.512800917080626584e-01
4.482231562858234875e-01
4.497516239969430729e-01
4.432556362246847792e-01
4.386702330913259673e-01
4.069545280855941805e-01
4.386702330913259673e-01
4.375238823079862227e-01
4.375238823079862227e-01
3.989300726022163013e-01
4.356132976690867409e-01
3.947267863966373858e-01
4.298815437523882399e-01
3.947267863966373858e-01
4.115399312189529923e-01
4.237676729079098426e-01
4.283530760412686544e-01
4.233855559801299462e-01
3.840275124188001765e-01
4.115399312189529923e-01
4.222392051967902016e-01
4.081008788689338695e-01
4.126862820022926814e-01
3.962552541077569712e-01
3.779136415743217237e-01
3.993121895299961976e-01
3.824990447076805355e-01
3.763851738632021382e-01
3.809705769965609501e-01
3.691249522353840518e-01
3.901413832632785739e-01
3.668322506687046181e-01
3.912877340466182630e-01
4.054260603744745950e-01
3.916698509743981593e-01
3.855559801299197620e-01
3.717997707298433263e-01
3.595720290408865316e-01
3.656858998853649290e-01
3.683607183798242035e-01
3.977837218188765567e-01
3.836453954910202246e-01
3.546045089797478234e-01
3.836453954910202246e-01
3.507833397019488042e-01
3.916698509743981593e-01
3.687428353076040999e-01
3.534581581964080788e-01
3.595720290408865316e-01
3.546045089797478234e-01
3.565150936186473052e-01
3.882307986243790365e-01
3.763851738632021382e-01
3.427588842185708695e-01
3.469621704241497850e-01
3.446694688574704069e-01
3.698891860909438445e-01
3.626289644631257025e-01
3.580435613297668906e-01
3.790599923576614683e-01
3.458158196408100959e-01
3.698891860909438445e-01
3.316774933129537639e-01
3.366450133740924722e-01
3.760030569354222418e-01
3.748567061520825527e-01
3.473442873519296814e-01
3.611004967520061171e-01
3.381734810852120576e-01
3.286205578907145375e-01
3.366450133740924722e-01
3.653037829575850326e-01
3.412304165074512841e-01
3.534581581964080788e-01
3.362628964463125758e-01
3.595720290408865316e-01
3.183034008406572246e-01
3.580435613297668906e-01
3.534581581964080788e-01
3.565150936186473052e-01
3.194497516239969692e-01
3.244172716851356775e-01
3.377913641574321613e-01
3.079862437905999117e-01
3.137179977072984127e-01
3.167749331295376392e-01
3.335880779518532457e-01
3.213603362628964510e-01
3.412304165074512841e-01
3.454337027130301996e-01
2.969048528849828061e-01
3.362628964463125758e-01
2.999617883072220326e-01
3.347344287351929903e-01
3.316774933129537639e-01
3.213603362628964510e-01
2.907909820405044088e-01
2.999617883072220326e-01
3.091325945739396008e-01
3.194497516239969692e-01
3.091325945739396008e-01
3.163928162017577428e-01
3.041650745128008926e-01
3.152464654184180537e-01
2.873519296904852860e-01
3.102789453572793454e-01
2.785632403515475586e-01
2.892625143293847678e-01
2.800917080626671996e-01
2.831486434849063705e-01
3.014902560183416180e-01
3.087504776461597045e-01
2.789453572793274549e-01
2.755063049293083877e-01
2.693924340848299348e-01
2.949942682460833243e-01
2.984333205961023916e-01
2.949942682460833243e-01
2.663354986625907639e-01
2.613679786014520556e-01
2.988154375238822880e-01
2.709209017959495758e-01
2.938479174627435797e-01
2.690103171570500384e-01
2.602216278181123665e-01
2.724493695070691612e-01
2.625143293847917447e-01
2.602216278181123665e-01
2.479938861291555163e-01
2.877340466182651824e-01
2.648070309514711229e-01
2.693924340848299348e-01
2.460833014902560067e-01
2.556362246847535546e-01
2.724493695070691612e-01
2.770347726404279731e-01
2.785632403515475586e-01
2.713030187237294721e-01
2.632785632403515375e-01
2.552541077569736583e-01
2.640427970959113302e-01
2.491402369124952332e-01
2.602216278181123665e-01
2.598395108903324147e-01
2.265953381734810979e-01
2.388230798624378926e-01
2.204814673290026728e-01
2.357661444401986939e-01
2.342376767290791084e-01
2.231562858234619751e-01
2.583110431792128292e-01
2.525792892625143282e-01
2.586931601069927256e-01
2.476117692013756200e-01
2.327092090179594952e-01
2.537256400458540173e-01
2.250668704623614846e-01
2.357661444401986939e-01
2.067252579289262648e-01
2.464654184180359309e-01
2.021398547955674529e-01
2.097821933511654635e-01
2.338555598012991843e-01
2.051967902178066516e-01
2.250668704623614846e-01
2.143675964845242754e-01
2.189529996178830595e-01
1.960259839510890278e-01
2.017577378677875566e-01
2.128391287734046622e-01
2.032862055789071420e-01
2.342376767290791084e-01
2.143675964845242754e-01
2.078716087122659539e-01
2.063431410011463407e-01
2.113106610622850490e-01
2.063431410011463407e-01
1.914405808177302160e-01
1.944975162399694424e-01
2.124570118456247658e-01
1.925869316010699328e-01
1.971723347344287447e-01
2.296522735957202965e-01
1.906763469621704232e-01
1.902942300343905269e-01
1.975544516622086411e-01
2.227741688956820787e-01
2.231562858234619751e-01
2.143675964845242754e-01
1.849445930454719222e-01
2.082537256400458503e-01
1.834161253343523090e-01
1.834161253343523090e-01
1.960259839510890278e-01
1.837982422621322054e-01
2.063431410011463407e-01
1.925869316010699328e-01
1.895299961788307341e-01
1.746274359954146094e-01
2.158960641956438609e-01
1.864730607565915077e-01
2.002292701566679434e-01
1.807413068398930067e-01
1.864730607565915077e-01
2.170424149789835777e-01
2.113106610622850490e-01
1.746274359954146094e-01
1.971723347344287447e-01
1.960259839510890278e-01
2.132212457011845586e-01
1.727168513565150998e-01
1.880015284677111209e-01
2.006113870844478397e-01
2.082537256400458503e-01
1.807413068398930067e-01
2.067252579289262648e-01
2.017577378677875566e-01
2.036683225066870384e-01
1.730989682842949962e-01
1.730989682842949962e-01
1.673672143675964952e-01
1.578142911730989750e-01
1.700420328620557975e-01
1.650745128009170892e-01
1.746274359954146094e-01
1.604891096675582773e-01
1.585785250286587678e-01
1.593427588842185605e-01
1.532288880397401631e-01
1.730989682842949962e-01
1.715705005731753829e-01
1.551394726786396727e-01
1.593427588842185605e-01
1.822697745510126199e-01
1.918226977455101123e-01
1.471150171952617380e-01
1.654566297286969856e-01
1.700420328620557975e-01
1.715705005731753829e-01
1.513183034008406536e-01
1.868551776843714041e-01
1.547573557508597764e-01
1.669850974398165711e-01
1.501719526175009645e-01
1.536110049675200595e-01
1.425296140619029539e-01
1.604891096675582773e-01
1.700420328620557975e-01
1.436759648452426430e-01
1.436759648452426430e-01
1.581964081008788714e-01
1.501719526175009645e-01
1.379442109285441420e-01
1.364157432174245288e-01
1.390905617118838311e-01
1.669850974398165711e-01
1.394726786396637275e-01
1.639281620175773724e-01
1.360336262896446324e-01
1.348872755063049156e-01
1.410011463507833407e-01
1.410011463507833407e-01
1.329766908674054338e-01
1.360336262896446324e-01
1.272449369507069050e-01
1.643102789453572687e-01
1.623996943064577869e-01
1.669850974398165711e-01
1.635460450897974760e-01
1.700420328620557975e-01
1.593427588842185605e-01
1.497898356897210681e-01
1.394726786396637275e-01
1.562858234619793618e-01
1.310661062285059242e-01
1.283912877340466219e-01
1.345051585785250192e-01
1.180741306839892951e-01
1.345051585785250192e-01
1.517004203286205499e-01
1.532288880397401631e-01
1.364157432174245288e-01
1.360336262896446324e-01
1.283912877340466219e-01
1.146350783339702001e-01
1.455865494841421526e-01
1.104317921283912846e-01
1.211310661062285077e-01
1.486434849063813513e-01
1.238058846006878100e-01
1.089033244172716852e-01
1.329766908674054338e-01
1.410011463507833407e-01
1.104317921283912846e-01
1.039358043561329770e-01
1.283912877340466219e-01
1.180741306839892951e-01
1.421474971341230298e-01
1.150171952617500964e-01
1.348872755063049156e-01
1.417653802063431334e-01
1.314482231562858205e-01
1.024073366450133776e-01
9.629346580053496640e-02
1.012609858616736747e-01
9.170806266717615451e-02
1.364157432174245288e-01
1.299197554451662073e-01
9.209017959495605088e-02
9.209017959495605088e-02
1.268628200229270087e-01
1.314482231562858205e-01
1.268628200229270087e-01
9.858616736721437235e-02
1.238058846006878100e-01
8.597630875047763965e-02
8.750477646159725287e-02
1.054642720672525763e-01
1.226595338173481070e-01
1.238058846006878100e-01
1.226595338173481070e-01
1.069927397783721756e-01
8.865112724493695584e-02
1.238058846006878100e-01
1.180741306839892951e-01
1.211310661062285077e-01
1.089033244172716852e-01
7.909820405043943570e-02
1.222774168895682106e-01
8.903324417271685220e-02
9.017959495605655518e-02
9.820405043943446211e-02
1.043179212839128733e-01
8.865112724493695584e-02
7.642338555598013339e-02
1.165456629728696958e-01
7.795185326709973272e-02
8.903324417271685220e-02
8.139090561711884164e-02
1.180741306839892951e-01
1.199847153228888047e-01
8.865112724493695584e-02
9.170806266717615451e-02
1.100496752006113882e-01
1.073748567061520859e-01
1.196025983951089083e-01
9.056171188383645154e-02
7.642338555598013339e-02
7.986243790599924230e-02
1.176920137562093988e-01
1.054642720672525763e-01
1.131066106228505869e-01
8.291937332823844098e-02
7.680550248376002975e-02
1.027894535727932740e-01
8.597630875047763965e-02
1.165456629728696958e-01
1.150171952617500964e-01
1.165456629728696958e-01
1.073748567061520859e-01
9.170806266717615451e-02
1.211310661062285077e-01
1.203668322506687011e-01
9.667558272831486277e-02
1.230416507451280034e-01
1.146350783339702001e-01
7.795185326709973272e-02
8.253725640045854461e-02
1.024073366450133776e-01
1.287734046618265182e-01
9.170806266717615451e-02
1.345051585785250192e-01
9.476499808941536707e-02
9.629346580053496640e-02
1.134887275506304971e-01
1.027894535727932740e-01
1.467329002674818417e-01
1.180741306839892951e-01
1.131066106228505869e-01
1.345051585785250192e-01
1.287734046618265182e-01
1.669850974398165711e-01
1.666029805120366747e-01
1.486434849063813513e-01
1.929690485288498292e-01
1.562858234619793618e-01
1.654566297286969856e-01
1.944975162399694424e-01
2.170424149789835777e-01
2.174245319067634741e-01
1.971723347344287447e-01
2.113106610622850490e-01
2.204814673290026728e-01
2.571646923958731401e-01
2.262132212457011737e-01
2.751241880015284913e-01
2.785632403515475586e-01
2.904088651127245124e-01
2.770347726404279731e-01
3.198318685517768656e-01
2.858234619793657005e-01
3.286205578907145375e-01
3.377913641574321613e-01
3.473442873519296814e-01
3.412304165074512841e-01
3.595720290408865316e-01
3.484906381352693705e-01
3.886129155521589329e-01
3.763851738632021382e-01
4.161253343523118042e-01
3.977837218188765567e-01
4.283530760412686544e-01
4.589224302636606967e-01
4.604508979747802822e-01
4.894917844860527389e-01
4.833779136415743416e-01
5.063049293083683455e-01
4.940771876194115508e-01
4.910202521971723244e-01
5.200611387084448367e-01
5.158578525028658657e-01
5.613297669086740882e-01
5.445166220863584261e-01
5.521589606419564644e-01
5.536874283530760499e-01
5.857852502865876776e-01
6.037447458922430288e-01
6.041268628200229251e-01
5.869316010699273667e-01
6.358425678257546565e-01
6.117692013756209635e-01
6.117692013756209635e-01
6.679403897592662842e-01
6.377531524646541383e-01
6.862820022927015318e-01
6.878104700038211172e-01
6.683225066870462916e-01
7.050057317539166757e-01
6.786396637371036045e-01
6.851356515093618427e-01
6.893389377149408137e-01
7.294612151318303761e-01
7.416889568207871708e-01
7.248758119984715087e-01
7.195261750095529596e-01
7.523882307986243800e-01
7.306075659151700652e-01
7.474207107374856163e-01
7.355750859763087179e-01
7.493312953763852091e-01
7.676729079098204567e-01
7.565915170042032400e-01
7.890714558654948751e-01
7.692013756209400421e-01
7.963316774933129061e-01
7.722583110431792131e-01
7.569736339319831364e-01
7.657623232709208638e-01
7.829575850210164223e-01
7.672907909820404493e-01
7.936568589988536315e-01
7.936568589988536315e-01
7.951853267099732170e-01
7.810470003821169405e-01
8.226977455101260883e-01
7.860145204432555932e-01
8.104700038211692936e-01
8.043561329766908408e-01
7.829575850210164223e-01
7.841039358043561114e-01
8.116163546045089827e-01
8.116163546045089827e-01
7.829575850210164223e-01
7.902178066488345642e-01
7.856324035154756968e-01
8.257546809323652592e-01
7.997707298433320844e-01
7.905999235766144606e-01
8.226977455101260883e-01
8.288116163546045412e-01
8.192586931601070210e-01
8.196408100878869174e-01
7.856324035154756968e-01
8.181123423767673319e-01
8.150554069545280500e-01
7.737867787542987985e-01
7.886893389377149788e-01
8.116163546045089827e-01
7.722583110431792131e-01
8.116163546045089827e-01
7.764615972487580731e-01
7.787542988154375623e-01
7.799006495987772514e-01
7.829575850210164223e-01
8.074130683989301227e-01
7.783721818876576659e-01
7.657623232709208638e-01
7.982422621322124989e-01
7.810470003821169405e-01
7.799006495987772514e-01
7.936568589988536315e-01
7.615590370653420038e-01
7.917462743599541497e-01
7.814291173098968368e-01
7.875429881543752897e-01
7.550630492930836546e-01
7.478028276652656237e-01
7.646159724875811747e-01
7.917462743599541497e-01
7.550630492930836546e-01
7.493312953763852091e-01
7.508597630875047946e-01
7.508597630875047946e-01
7.768437141765379694e-01
7.573557508597630328e-01
7.539166985097439655e-01
7.371035536874283034e-01
7.672907909820404493e-01
7.340466182651891325e-01
7.416889568207871708e-01
7.458922430263660308e-01
7.489491784486053128e-01
7.386320213985479999e-01
7.306075659151700652e-01
7.478028276652656237e-01
7.569736339319831364e-01
7.432174245319067563e-01
7.340466182651891325e-01
7.340466182651891325e-01
7.218188765762323378e-01
7.157050057317538849e-01
7.187619411539931669e-01
7.508597630875047946e-01
7.462743599541459272e-01
7.351929690485288216e-01
7.489491784486053128e-01
7.355750859763087179e-01
7.027130301872372975e-01
7.336645013374092361e-01
7.401604891096675853e-01
7.325181505540695470e-01
7.233473442873519232e-01
6.985097439816584375e-01
7.340466182651891325e-01
7.264042797095910942e-01
7.294612151318303761e-01
7.027130301872372975e-01
6.897210546427207101e-01
7.076805502483759502e-01
7.264042797095910942e-01
6.893389377149408137e-01
7.218188765762323378e-01
7.199082919373328560e-01
6.805502483760030863e-01
6.836071837982422572e-01
6.744363775315246334e-01
7.000382116927780229e-01
6.771111960259839080e-01
6.740542606037447371e-01
6.943064577760794664e-01
7.080626671761559576e-01
7.076805502483759502e-01
6.985097439816584375e-01
6.652655712648070097e-01
6.622086358425678387e-01
6.943064577760794664e-01
6.866641192204814281e-01
6.633549866259075278e-01
6.530378295758502150e-01
6.805502483760030863e-01
6.759648452426442189e-01
6.744363775315246334e-01
6.637371035536874242e-01
6.484524264424913476e-01
6.744363775315246334e-01
6.499808941536110440e-01
6.622086358425678387e-01
6.320213985479556928e-01
6.453954910202521766e-01
6.239969430645777582e-01
6.346962170424149674e-01
6.602980512036683569e-01
6.205578907145586909e-01
6.480703095147114512e-01
6.087122659533816815e-01
6.090943828811616889e-01
6.022162781811234433e-01
6.434849063813526948e-01
5.995414596866641688e-01
6.037447458922430288e-01
6.159724875811998235e-01
5.941918226977455086e-01
6.255254107756973436e-01
6.129155521589606526e-01
5.781429117309896393e-01
5.716469239587314011e-01
5.689721054642720155e-01
5.674436377531524300e-01
5.598012991975545027e-01
5.670615208253725337e-01
5.808177302254490249e-01
5.517768437141765681e-01
5.766144440198700538e-01
5.536874283530760499e-01
5.762323270920901574e-01
5.735575085976308829e-01
5.674436377531524300e-01
5.338173481085212169e-01
5.334352311807413205e-01
5.582728314864348063e-01
5.536874283530760499e-01
5.277034772640427640e-01
5.170042032862055548e-01
5.139472678639663838e-01
4.986625907527703627e-01
5.212074894917845258e-01
5.124188001528467984e-01
5.063049293083683455e-01
4.833779136415743416e-01
4.986625907527703627e-01
4.803209782193351152e-01
4.757355750859763033e-01
5.001910584638900037e-01
4.696217042414979059e-01
4.742071073748567178e-01
4.757355750859763033e-01
5.001910584638900037e-01
4.528085594191822438e-01
4.516622086358425547e-01
4.879633167749331535e-01
4.451662208635842610e-01
4.508979747802827620e-01
4.619793656858998676e-01
4.329384791746274108e-01
4.753534581581964069e-01
4.325563622468475145e-01
4.608330149025601785e-01
4.375238823079862227e-01
4.344669468857470518e-01
4.207107374856706161e-01
4.161253343523118042e-01
4.573939625525410557e-01
4.405808177302254491e-01
4.130683989300725778e-01
4.508979747802827620e-01
4.100114635078334069e-01
4.084829957967138214e-01
4.386702330913259673e-01
4.100114635078334069e-01
4.421092854413450346e-01
4.390523500191058637e-01
4.096293465800535105e-01
4.252961406190294280e-01
4.359954145968666372e-01
3.993121895299961976e-01
3.962552541077569712e-01
4.344669468857470518e-01
3.962552541077569712e-01
4.054260603744745950e-01
3.977837218188765567e-01
4.264424914023691171e-01
4.233855559801299462e-01
3.912877340466182630e-01
4.191822697745510307e-01
4.138326327856324260e-01
4.314100114635078254e-01
4.294994268246083435e-01
4.237676729079098426e-01
4.218570882690103052e-01
3.962552541077569712e-01
4.172716851356514933e-01
4.252961406190294280e-01
3.989300726022163013e-01
3.870844478410393474e-01
4.283530760412686544e-01
4.084829957967138214e-01
4.019870080244554722e-01
4.172716851356514933e-01
3.931983186855177448e-01
3.928162017577378484e-01
3.947267863966373858e-01
3.901413832632785739e-01
4.207107374856706161e-01
4.176538020634313897e-01
4.130683989300725778e-01
4.191822697745510307e-01
3.974016048910966603e-01
4.065724111578142841e-01
4.207107374856706161e-01
4.333205961024073627e-01
4.115399312189529923e-01
3.962552541077569712e-01
4.298815437523882399e-01
4.359954145968666372e-01
4.417271685135651382e-01
4.165074512800917006e-01
4.035154757355751132e-01
4.157432174245319079e-01
4.375238823079862227e-01
4.314100114635078254e-01
3.993121895299961976e-01
4.233855559801299462e-01
4.176538020634313897e-01
4.023691249522353686e-01
4.463125716469239501e-01
3.993121895299961976e-01
4.390523500191058637e-01
4.252961406190294280e-01
4.130683989300725778e-01
4.191822697745510307e-01
4.451662208635842610e-01
4.329384791746274108e-01
4.103935804356133032e-01
4.386702330913259673e-01
4.065724111578142841e-01
4.081008788689338695e-01
4.329384791746274108e-01
4.176538020634313897e-01
4.207107374856706161e-01
4.145968666411922188e-01
4.004585403133358867e-01
4.145968666411922188e-01
4.314100114635078254e-01
4.096293465800535105e-01
4.417271685135651382e-01
4.329384791746274108e-01
4.241497898356897389e-01
4.386702330913259673e-01
4.375238823079862227e-01
4.222392051967902016e-01
4.237676729079098426e-01
4.344669468857470518e-01
3.943446694688574894e-01
3.993121895299961976e-01
4.218570882690103052e-01
4.157432174245319079e-01
4.222392051967902016e-01
3.840275124188001765e-01
4.100114635078334069e-01
4.191822697745510307e-01
4.226213221245700979e-01
4.203286205578907198e-01
4.054260603744745950e-01
3.840275124188001765e-01
3.729461215131830154e-01
4.130683989300725778e-01
4.130683989300725778e-01
3.824990447076805355e-01
3.733282384409629118e-01
3.775315246465418273e-01
3.824990447076805355e-01
3.729461215131830154e-01
3.637753152464653916e-01
3.565150936186473052e-01
3.779136415743217237e-01
3.717997707298433263e-01
3.534581581964080788e-01
3.733282384409629118e-01
3.790599923576614683e-01
3.515475735575085969e-01
3.687428353076040999e-01
3.855559801299197620e-01
3.683607183798242035e-01
3.515475735575085969e-01
3.473442873519296814e-01
3.347344287351929903e-01
3.320596102407336603e-01
3.546045089797478234e-01
3.710355368742835336e-01
3.259457393962552629e-01
3.687428353076040999e-01
3.473442873519296814e-01
3.595720290408865316e-01
3.198318685517768656e-01
3.259457393962552629e-01
3.446694688574704069e-01
3.183034008406572246e-01
3.427588842185708695e-01
3.102789453572793454e-01
3.427588842185708695e-01
3.255636224684753666e-01
3.305311425296140748e-01
3.439052350019105586e-01
3.106610622850592418e-01
3.133358807795185164e-01
3.290026748184944339e-01
2.984333205961023916e-01
3.045471914405808445e-01
2.904088651127245124e-01
3.102789453572793454e-01
3.305311425296140748e-01
2.957585021016431170e-01
2.934658005349636833e-01
2.923194497516239942e-01
2.984333205961023916e-01
3.106610622850592418e-01
2.827665265571264741e-01
3.056935422239205336e-01
2.766526557126480768e-01
3.167749331295376392e-01
2.965227359572029098e-01
2.858234619793657005e-01
2.984333205961023916e-01
2.713030187237294721e-01
3.087504776461597045e-01
2.969048528849828061e-01
2.751241880015284913e-01
2.632785632403515375e-01
2.617500955292319520e-01
2.602216278181123665e-01
2.934658005349636833e-01
2.628964463125716411e-01
2.907909820405044088e-01
2.877340466182651824e-01
2.552541077569736583e-01
2.800917080626671996e-01
2.766526557126480768e-01
2.720672525792892649e-01
2.495223538402751295e-01
2.613679786014520556e-01
2.797095911348873032e-01
2.755063049293083877e-01
2.525792892625143282e-01
2.556362246847535546e-01
2.449369507069163177e-01
2.479938861291555163e-01
2.735957202904088503e-01
2.724493695070691612e-01
2.403515475735575058e-01
2.755063049293083877e-01
2.648070309514711229e-01
2.418800152846771190e-01
2.831486434849063705e-01
2.521971723347344319e-01
2.800917080626671996e-01
2.735957202904088503e-01
2.602216278181123665e-01
2.292701566679404002e-01
2.556362246847535546e-01
2.330913259457393916e-01
2.613679786014520556e-01
2.495223538402751295e-01
2.338555598012991843e-01
2.617500955292319520e-01
2.709209017959495758e-01
2.342376767290791084e-01
2.663354986625907639e-01
2.617500955292319520e-01
2.617500955292319520e-01
2.265953381734810979e-01
2.327092090179594952e-01
2.285059228123805797e-01
2.491402369124952332e-01
2.231562858234619751e-01
2.372946121513183071e-01
2.357661444401986939e-01
2.265953381734810979e-01
2.422621322124570153e-01
2.235384027512418714e-01
2.422621322124570153e-01
2.189529996178830595e-01
2.143675964845242754e-01
2.174245319067634741e-01
2.510508215513947428e-01
2.388230798624378926e-01
2.155139472678639645e-01
2.445548337791364213e-01
2.281238058846006833e-01
2.388230798624378926e-01
2.189529996178830595e-01
2.353840275124187975e-01
2.113106610622850490e-01
2.139854795567443513e-01
2.495223538402751295e-01
2.189529996178830595e-01
2.067252579289262648e-01
2.479938861291555163e-01
2.265953381734810979e-01
2.246847535345815883e-01
2.476117692013756200e-01
2.311807413068398820e-01
2.277416889568207869e-01
2.323270920901795988e-01
2.067252579289262648e-01
2.071073748567061612e-01
2.036683225066870384e-01
2.116927779900649731e-01
2.403515475735575058e-01
2.403515475735575058e-01
2.109285441345051526e-01
2.384409629346579962e-01
2.128391287734046622e-01
2.143675964845242754e-01
2.357661444401986939e-01
2.399694306457776094e-01
2.250668704623614846e-01
2.113106610622850490e-01
2.143675964845242754e-01
2.109285441345051526e-01
2.342376767290791084e-01
1.967902178066488483e-01
2.094000764233855671e-01
2.174245319067634741e-01
2.353840275124187975e-01
1.929690485288498292e-01
2.094000764233855671e-01
2.323270920901795988e-01
1.899121131066106305e-01
2.327092090179594952e-01
2.139854795567443513e-01
2.265953381734810979e-01
1.895299961788307341e-01
2.036683225066870384e-01
2.235384027512418714e-01
2.082537256400458503e-01
2.143675964845242754e-01
2.246847535345815883e-01
2.174245319067634741e-01
1.834161253343523090e-01
2.113106610622850490e-01
2.155139472678639645e-01
2.139854795567443513e-01
1.967902178066488483e-01
1.929690485288498292e-01
2.051967902178066516e-01
2.113106610622850490e-01
2.051967902178066516e-01
1.711883836453954866e-01
1.807413068398930067e-01
1.864730607565915077e-01
1.837982422621322054e-01
2.006113870844478397e-01
1.669850974398165711e-01
1.623996943064577869e-01
1.669850974398165711e-01
1.914405808177302160e-01
1.650745128009170892e-01
1.849445930454719222e-01
1.899121131066106305e-01
1.513183034008406536e-01
1.715705005731753829e-01
1.730989682842949962e-01
1.803591899121131104e-01
1.604891096675582773e-01
1.887657623232709136e-01
1.895299961788307341e-01
1.761559037065341948e-01
1.467329002674818417e-01
1.547573557508597764e-01
1.394726786396637275e-01
1.727168513565150998e-01
1.677493312953763915e-01
1.413832632785632371e-01
1.436759648452426430e-01
1.333588077951853301e-01
1.547573557508597764e-01
1.669850974398165711e-01
1.299197554451662073e-01
1.517004203286205499e-01
1.574321742453190787e-01
1.688956820787160806e-01
1.455865494841421526e-01
1.314482231562858205e-01
1.635460450897974760e-01
1.238058846006878100e-01
1.211310661062285077e-01
1.165456629728696958e-01
1.303018723729461315e-01
1.119602598395108839e-01
1.196025983951089083e-01
1.241880015284677063e-01
1.406190294230034443e-01
1.390905617118838311e-01
1.436759648452426430e-01
1.497898356897210681e-01
1.452044325563622562e-01
1.337409247229652265e-01
1.440580817730225394e-01
1.345051585785250192e-01
1.425296140619029539e-01
1.333588077951853301e-01
1.008788689338937783e-01
1.008788689338937783e-01
1.043179212839128733e-01
1.348872755063049156e-01
1.207489491784486113e-01
1.238058846006878100e-01
1.360336262896446324e-01
1.104317921283912846e-01
1.238058846006878100e-01
1.364157432174245288e-01
1.348872755063049156e-01
9.629346580053496640e-02
9.476499808941536707e-02
9.629346580053496640e-02
1.287734046618265182e-01
9.935040122277416508e-02
1.058463889950324865e-01
1.367978601452044252e-01
1.452044325563622562e-01
9.782193351165456574e-02
1.027894535727932740e-01
1.482613679786014549e-01
1.115781429117309875e-01
1.211310661062285077e-01
1.329766908674054338e-01
1.501719526175009645e-01
1.379442109285441420e-01
1.436759648452426430e-01
1.303018723729461315e-01
1.287734046618265182e-01
1.425296140619029539e-01
1.639281620175773724e-01
1.853267099732518186e-01
1.559037065341994654e-01
1.925869316010699328e-01
1.650745128009170892e-01
1.990829193733282265e-01
1.807413068398930067e-01
2.158960641956438609e-01
2.311807413068398820e-01
2.403515475735575058e-01
2.479938861291555163e-01
2.598395108903324147e-01
2.674818494459304530e-01
2.617500955292319520e-01
2.835307604126862668e-01
2.560183416125334510e-01
2.969048528849828061e-01
2.953763851738632207e-01
2.812380588460068886e-01
2.949942682460833243e-01
3.106610622850592418e-01
3.274742071073748484e-01
3.675964845242644108e-01
3.828811616354604319e-01
3.821169277799006392e-01
3.760030569354222418e-01
4.084829957967138214e-01
3.916698509743981593e-01
4.356132976690867409e-01
4.142147497134123224e-01
4.356132976690867409e-01
4.325563622468475145e-01
4.497516239969430729e-01
4.528085594191822438e-01
4.803209782193351152e-01
4.768819258693159924e-01
4.887275506304929462e-01
5.368742835307603878e-01
5.429881543752388406e-01
5.659151700420328446e-01
5.640045854031333628e-01
5.857852502865876776e-01
5.857852502865876776e-01
5.873137179977072631e-01
5.899885364921666486e-01
5.888421857088268485e-01
6.025983951089033397e-01
6.469239587313717621e-01
6.526557126480703186e-01
6.602980512036683569e-01
6.591517004203286678e-01
6.576232327092089713e-01
6.927779900649598810e-01
6.683225066870462916e-01
6.954528085594191555e-01
6.790217806648835008e-01
6.866641192204814281e-01
7.248758119984715087e-01
6.958349254871990519e-01
7.061520825372563648e-01
7.371035536874283034e-01
7.386320213985479999e-01
7.218188765762323378e-01
7.539166985097439655e-01
7.722583110431792131e-01
7.474207107374856163e-01
7.401604891096675853e-01
7.458922430263660308e-01
7.749331295376384876e-01
7.982422621322124989e-01
7.810470003821169405e-01
7.814291173098968368e-01
7.825754680932365259e-01
7.967137944210928024e-01
7.810470003821169405e-01
7.982422621322124989e-01
7.814291173098968368e-01
8.288116163546045412e-01
7.997707298433320844e-01
8.192586931601070210e-01
7.917462743599541497e-01
7.978601452044326026e-01
8.074130683989301227e-01
8.360718379824225721e-01
8.284294994268246448e-01
8.085594191822698118e-01
8.223156285823461920e-01
8.184944593045472283e-01
8.460068781046999886e-01
8.070309514711502263e-01
8.333970194879632976e-01
8.284294994268246448e-01
8.395108903324417504e-01
8.104700038211692936e-01
8.414214749713412322e-01
8.058846006878104262e-01
8.196408100878869174e-01
8.116163546045089827e-01
8.119984715322888791e-01
8.154375238823079464e-01
8.211692777990065029e-01
8.253725640045853629e-01
8.272831486434849557e-01
8.028276652655712553e-01
8.196408100878869174e-01
8.345433702713029867e-01
8.012991975544516698e-01
8.001528467711119808e-01
8.012991975544516698e-01
8.032097821933511517e-01
8.074130683989301227e-01
8.376003056935422686e-01
8.364539549102024685e-01
8.349254871990828830e-01
8.318685517768437121e-01
7.967137944210928024e-01
8.211692777990065029e-01
7.970959113488728098e-01
8.211692777990065029e-01
7.905999235766144606e-01
8.135269392434084645e-01
7.860145204432555932e-01
8.299579671379442303e-01
7.860145204432555932e-01
8.272831486434849557e-01
7.905999235766144606e-01
8.012991975544516698e-01
8.181123423767673319e-01
7.783721818876576659e-01
7.921283912877340461e-01
7.871608712265953933e-01
7.799006495987772514e-01
8.196408100878869174e-01
7.799006495987772514e-01
8.162017577378677391e-01
7.997707298433320844e-01
7.799006495987772514e-01
7.948032097821933206e-01
7.783721818876576659e-01
7.982422621322124989e-01
7.799006495987772514e-01
8.012991975544516698e-01
7.676729079098204567e-01
7.661444401987007602e-01
7.799006495987772514e-01
7.978601452044326026e-01
7.672907909820404493e-01
7.539166985097439655e-01
7.905999235766144606e-01
7.810470003821169405e-01
7.535345815819640691e-01
7.611769201375621074e-01
7.799006495987772514e-01
7.585021016431028329e-01
7.458922430263660308e-01
7.661444401987007602e-01
7.676729079098204567e-01
7.401604891096675853e-01
7.844860527321360077e-01
7.382499044707681035e-01
7.707298433320596276e-01
7.722583110431792131e-01
7.371035536874283034e-01
7.321360336262896507e-01
7.371035536874283034e-01
7.722583110431792131e-01
7.294612151318303761e-01
7.386320213985479999e-01
7.630875047764615893e-01
7.187619411539931669e-01
7.264042797095910942e-01
7.585021016431028329e-01
7.493312953763852091e-01
7.290790982040504797e-01
7.264042797095910942e-01
7.508597630875047946e-01
7.523882307986243800e-01
7.157050057317538849e-01
7.187619411539931669e-01
7.413068398930072744e-01
7.520061138708444837e-01
7.137944210928544031e-01
7.107374856706152322e-01
7.202904088651127523e-01
7.493312953763852091e-01
7.279327474207107906e-01
7.202904088651127523e-01
7.428353076041268599e-01
6.958349254871990519e-01
7.397783721818876890e-01
7.244936950706916123e-01
7.355750859763087179e-01
7.260221627818111978e-01
7.321360336262896507e-01
7.111196025983951285e-01
7.046236148261367793e-01
7.080626671761559576e-01
6.897210546427207101e-01
6.954528085594191555e-01
7.137944210928544031e-01
7.080626671761559576e-01
7.092090179594956467e-01
7.157050057317538849e-01
6.729079098204050480e-01
6.679403897592662842e-01
7.030951471150171939e-01
6.881925869316011246e-01
6.576232327092089713e-01
6.576232327092089713e-01
6.878104700038211172e-01
6.943064577760794664e-01
6.759648452426442189e-01
6.518914787925105259e-01
6.740542606037447371e-01
6.396637371035537312e-01
6.545662972869698004e-01
6.591517004203286678e-01
6.606801681314482533e-01
6.316392816201757965e-01
6.209400076423385872e-01
6.239969430645777582e-01
6.346962170424149674e-01
6.545662972869698004e-01
6.465418418035918657e-01
6.301108139090562110e-01
6.408100878868934203e-01
6.071837982422620961e-01
6.098586167367214816e-01
6.297286969812763147e-01
5.995414596866641688e-01
5.838746656476881958e-01
6.071837982422620961e-01
6.209400076423385872e-01
6.037447458922430288e-01
6.102407336645013780e-01
5.766144440198700538e-01
5.624761176920137773e-01
5.659151700420328446e-01
5.930454719144058195e-01
5.643867023309132591e-01
5.563622468475353244e-01
5.598012991975545027e-01
5.487199082919372861e-01
5.808177302254490249e-01
5.399312189529996697e-01
5.548337791364157390e-01
5.613297669086740882e-01
5.349636988918609060e-01
5.521589606419564644e-01
5.410775697363393588e-01
5.181505540695452439e-01
5.185326709973251402e-01
5.582728314864348063e-01
5.288498280473824531e-01
5.200611387084448367e-01
5.277034772640427640e-01
5.078333970194879310e-01
5.338173481085212169e-01
5.063049293083683455e-01
5.170042032862055548e-01
4.971341230416507218e-01
5.288498280473824531e-01
4.986625907527703627e-01
5.261750095529231785e-01
4.894917844860527389e-01
4.936950706916316545e-01
4.849063813526939271e-01
5.242644249140236967e-01
5.032479938861291746e-01
4.814673290026748043e-01
4.757355750859763033e-01
4.875811998471532016e-01
5.047764615972487601e-01
4.787925105082155297e-01
4.711501719526174914e-01
5.059228123805884492e-01
4.696217042414979059e-01
5.124188001528467984e-01
4.910202521971723244e-01
5.108903324417272129e-01
4.894917844860527389e-01
4.650363011081390940e-01
5.017195261750095892e-01
4.604508979747802822e-01
4.894917844860527389e-01
4.711501719526174914e-01
4.680932365303783205e-01
4.803209782193351152e-01
5.001910584638900037e-01
4.646541841803591977e-01
4.619793656858998676e-01
4.539549102025219884e-01
4.925487199082919099e-01
4.833779136415743416e-01
4.635078333970195086e-01
4.910202521971723244e-01
4.894917844860527389e-01
4.707680550248375950e-01
4.860527321360336162e-01
4.451662208635842610e-01
4.432556362246847792e-01
4.589224302636606967e-01
4.478410393580435356e-01
4.405808177302254491e-01
4.421092854413450346e-01
4.818494459304547006e-01
4.631257164692396122e-01
4.573939625525410557e-01
4.371417653802063263e-01
4.386702330913259673e-01
4.615972487581199712e-01
4.310278945357279290e-01
4.711501719526174914e-01
4.333205961024073627e-01
4.298815437523882399e-01
4.421092854413450346e-01
4.340848299579671554e-01
4.650363011081390940e-01
4.543370271303018848e-01
4.631257164692396122e-01
4.314100114635078254e-01
4.650363011081390940e-01
4.375238823079862227e-01
4.604508979747802822e-01
4.237676729079098426e-01
4.207107374856706161e-01
4.589224302636606967e-01
4.497516239969430729e-01
4.298815437523882399e-01
4.436377531524646756e-01
4.268246083301490135e-01
4.508979747802827620e-01
4.375238823079862227e-01
4.237676729079098426e-01
4.478410393580435356e-01
4.054260603744745950e-01
4.287351929690485508e-01
4.436377531524646756e-01
4.023691249522353686e-01
4.065724111578142841e-01
4.019870080244554722e-01
4.008406572411157831e-01
4.157432174245319079e-01
4.176538020634313897e-01
3.886129155521589329e-01
4.008406572411157831e-01
3.901413832632785739e-01
3.989300726022163013e-01
3.844096293465800729e-01
4.203286205578907198e-01
3.824990447076805355e-01
3.824990447076805355e-01
3.790599923576614683e-01
4.207107374856706161e-01
4.142147497134123224e-01
4.019870080244554722e-01
3.870844478410393474e-01
3.790599923576614683e-01
3.687428353076040999e-01
3.824990447076805355e-01
3.641574321742453435e-01
3.897592663354986775e-01
3.870844478410393474e-01
3.775315246465418273e-01
3.993121895299961976e-01
3.931983186855177448e-01
3.565150936186473052e-01
3.534581581964080788e-01
3.901413832632785739e-01
3.763851738632021382e-01
3.473442873519296814e-01
3.824990447076805355e-01
3.836453954910202246e-01
3.702713030187237409e-01
3.488727550630492669e-01
3.454337027130301996e-01
3.687428353076040999e-01
3.565150936186473052e-01
3.641574321742453435e-01
3.561329766908674088e-01
3.244172716851356775e-01
3.183034008406572246e-01
3.484906381352693705e-01
3.408482995796713877e-01
3.427588842185708695e-01
3.473442873519296814e-01
3.439052350019105586e-01
3.504012227741689078e-01
3.381734810852120576e-01
3.011081390905617217e-01
3.351165456629728867e-01
3.427588842185708695e-01
3.026366068016813071e-01
3.045471914405808445e-01
3.014902560183416180e-01
3.290026748184944339e-01
3.121895299961788273e-01
3.228888039740160365e-01
3.183034008406572246e-01
2.816201757737867850e-01
2.862055789071455969e-01
3.167749331295376392e-01
2.995796713794421362e-01
3.137179977072984127e-01
3.018723729461215144e-01
2.877340466182651824e-01
3.076041268628200154e-01
2.846771111960260114e-01
2.613679786014520556e-01
2.739778372181887467e-01
2.613679786014520556e-01
2.602216278181123665e-01
2.965227359572029098e-01
2.705387848681696794e-01
2.537256400458540173e-01
2.770347726404279731e-01
2.495223538402751295e-01
2.781811234237676622e-01
2.724493695070691612e-01
2.342376767290791084e-01
2.464654184180359309e-01
2.388230798624378926e-01
2.369124952235384107e-01
2.323270920901795988e-01
2.265953381734810979e-01
2.632785632403515375e-01
2.449369507069163177e-01
2.250668704623614846e-01
2.220099350401222860e-01
2.281238058846006833e-01
2.262132212457011737e-01
2.342376767290791084e-01
2.510508215513947428e-01
2.281238058846006833e-01
2.185708826901031632e-01
2.139854795567443513e-01
2.342376767290791084e-01
2.311807413068398820e-01
2.434084829957967044e-01
2.097821933511654635e-01
2.357661444401986939e-01
2.097821933511654635e-01
2.307986243790599856e-01
2.021398547955674529e-01
2.220099350401222860e-01
2.067252579289262648e-01
1.941153993121895183e-01
1.956438670233091315e-01
1.914405808177302160e-01
2.006113870844478397e-01
1.956438670233091315e-01
2.281238058846006833e-01
2.040504394344669348e-01
2.082537256400458503e-01
2.235384027512418714e-01
2.235384027512418714e-01
2.067252579289262648e-01
2.170424149789835777e-01
2.155139472678639645e-01
2.128391287734046622e-01
2.220099350401222860e-01
1.837982422621322054e-01
1.990829193733282265e-01
1.742453190676346853e-01
1.761559037065341948e-01
2.078716087122659539e-01
1.681314482231562879e-01
1.795949560565533176e-01
1.776843714176538080e-01
1.773022544898739117e-01
1.971723347344287447e-01
1.925869316010699328e-01
1.746274359954146094e-01
2.032862055789071420e-01
2.116927779900649731e-01
2.094000764233855671e-01
1.757737867787542985e-01
1.792128391287733935e-01
1.727168513565150998e-01
2.109285441345051526e-01
2.082537256400458503e-01
2.128391287734046622e-01
2.094000764233855671e-01
1.807413068398930067e-01
1.822697745510126199e-01
2.109285441345051526e-01
2.113106610622850490e-01
1.681314482231562879e-01
1.681314482231562879e-01
1.776843714176538080e-01
1.899121131066106305e-01
1.746274359954146094e-01
1.742453190676346853e-01
2.021398547955674529e-01
1.681314482231562879e-01
1.688956820787160806e-01
1.700420328620557975e-01
1.803591899121131104e-01
1.987008024455483302e-01
1.669850974398165711e-01
1.918226977455101123e-01
1.914405808177302160e-01
1.773022544898739117e-01
2.032862055789071420e-01
1.792128391287733935e-01
1.941153993121895183e-01
1.990829193733282265e-01
1.532288880397401631e-01
