5.013374092472296928e-01
4.940771876194115508e-01
4.986625907527703627e-01
4.940771876194115508e-01
4.849063813526939271e-01
4.910202521971723244e-01
4.956056553305311363e-01
4.879633167749331535e-01
4.936950706916316545e-01
4.925487199082919099e-01
4.982804738249904664e-01
4.910202521971723244e-01
4.787925105082155297e-01
4.894917844860527389e-01
4.833779136415743416e-01
4.894917844860527389e-01
4.879633167749331535e-01
4.986625907527703627e-01
4.864348490638135125e-01
4.757355750859763033e-01
4.891096675582728426e-01
4.738249904470768215e-01
4.910202521971723244e-01
4.849063813526939271e-01
4.814673290026748043e-01
4.864348490638135125e-01
4.799388612915552188e-01
4.696217042414979059e-01
4.921666029805120135e-01
4.722965227359571805e-01
4.818494459304547006e-01
4.814673290026748043e-01
4.910202521971723244e-01
4.833779136415743416e-01
4.726786396637370768e-01
4.787925105082155297e-01
4.692395873137180096e-01
4.726786396637370768e-01
4.631257164692396122e-01
4.772640427970958887e-01
4.650363011081390940e-01
4.635078333970195086e-01
4.619793656858998676e-01
4.692395873137180096e-01
4.726786396637370768e-01
4.726786396637370768e-01
4.711501719526174914e-01
4.669468857470385759e-01
4.570118456247611594e-01
4.615972487581199712e-01
4.635078333970195086e-01
4.696217042414979059e-01
4.619793656858998676e-01
4.619793656858998676e-01
4.589224302636606967e-01
4.635078333970195086e-01
4.635078333970195086e-01
4.528085594191822438e-01
4.466946885747038465e-01
4.585403133358808003e-01
4.619793656858998676e-01
4.497516239969430729e-01
4.421092854413450346e-01
4.497516239969430729e-01
4.497516239969430729e-01
4.528085594191822438e-01
4.436377531524646756e-01
4.432556362246847792e-01
4.570118456247611594e-01
4.512800917080626584e-01
4.466946885747038465e-01
4.512800917080626584e-01
4.375238823079862227e-01
4.600687810470003858e-01
4.451662208635842610e-01
4.371417653802063263e-01
4.386702330913259673e-01
4.417271685135651382e-01
4.401987008024455528e-01
4.314100114635078254e-01
4.375238823079862227e-01
4.432556362246847792e-01
4.436377531524646756e-01
4.417271685135651382e-01
4.314100114635078254e-01
4.436377531524646756e-01
4.310278945357279290e-01
4.436377531524646756e-01
4.294994268246083435e-01
4.356132976690867409e-01
4.298815437523882399e-01
4.268246083301490135e-01
4.344669468857470518e-01
4.344669468857470518e-01
4.333205961024073627e-01
4.279709591134887026e-01
4.218570882690103052e-01
4.222392051967902016e-01
4.283530760412686544e-01
4.294994268246083435e-01
4.207107374856706161e-01
4.222392051967902016e-01
4.207107374856706161e-01
4.325563622468475145e-01
4.268246083301490135e-01
4.249140236912495316e-01
4.126862820022926814e-01
4.222392051967902016e-01
4.172716851356514933e-01
4.233855559801299462e-01
4.191822697745510307e-01
4.237676729079098426e-01
4.191822697745510307e-01
4.249140236912495316e-01
4.272067252579289098e-01
4.191822697745510307e-01
4.084829957967138214e-01
4.176538020634313897e-01
4.252961406190294280e-01
4.176538020634313897e-01
4.065724111578142841e-01
4.203286205578907198e-01
4.019870080244554722e-01
4.115399312189529923e-01
4.023691249522353686e-01
4.038975926633550095e-01
4.084829957967138214e-01
4.065724111578142841e-01
4.142147497134123224e-01
4.004585403133358867e-01
4.081008788689338695e-01
4.054260603744745950e-01
4.023691249522353686e-01
4.081008788689338695e-01
4.084829957967138214e-01
4.126862820022926814e-01
4.019870080244554722e-01
4.054260603744745950e-01
4.069545280855941805e-01
4.142147497134123224e-01
4.054260603744745950e-01
3.947267863966373858e-01
4.130683989300725778e-01
4.004585403133358867e-01
3.958731371799770749e-01
4.027512418800152649e-01
3.989300726022163013e-01
3.977837218188765567e-01
4.004585403133358867e-01
3.916698509743981593e-01
4.065724111578142841e-01
3.947267863966373858e-01
3.855559801299197620e-01
4.038975926633550095e-01
3.947267863966373858e-01
4.054260603744745950e-01
3.912877340466182630e-01
3.882307986243790365e-01
3.824990447076805355e-01
3.947267863966373858e-01
3.897592663354986775e-01
3.851738632021398656e-01
3.836453954910202246e-01
3.989300726022163013e-01
3.912877340466182630e-01
3.931983186855177448e-01
3.794421092854413646e-01
3.928162017577378484e-01
3.870844478410393474e-01
3.840275124188001765e-01
3.870844478410393474e-01
3.836453954910202246e-01
3.962552541077569712e-01
3.916698509743981593e-01
3.912877340466182630e-01
3.943446694688574894e-01
3.836453954910202246e-01
3.947267863966373858e-01
3.840275124188001765e-01
3.951089033244172821e-01
3.855559801299197620e-01
3.794421092854413646e-01
3.779136415743217237e-01
3.928162017577378484e-01
3.824990447076805355e-01
3.867023309132594511e-01
3.821169277799006392e-01
3.824990447076805355e-01
3.779136415743217237e-01
3.836453954910202246e-01
3.840275124188001765e-01
3.855559801299197620e-01
3.794421092854413646e-01
3.794421092854413646e-01
3.805884600687810537e-01
3.905235001910584702e-01
3.790599923576614683e-01
3.870844478410393474e-01
3.779136415743217237e-01
3.794421092854413646e-01
3.809705769965609501e-01
3.794421092854413646e-01
3.763851738632021382e-01
3.794421092854413646e-01
3.886129155521589329e-01
3.916698509743981593e-01
3.931983186855177448e-01
3.886129155521589329e-01
3.824990447076805355e-01
3.763851738632021382e-01
3.824990447076805355e-01
3.794421092854413646e-01
3.840275124188001765e-01
3.824990447076805355e-01
3.867023309132594511e-01
3.943446694688574894e-01
3.954910202521971785e-01
3.794421092854413646e-01
3.882307986243790365e-01
3.886129155521589329e-01
3.851738632021398656e-01
3.851738632021398656e-01
3.779136415743217237e-01
3.897592663354986775e-01
3.855559801299197620e-01
3.824990447076805355e-01
3.870844478410393474e-01
3.855559801299197620e-01
3.974016048910966603e-01
3.832632785632403283e-01
3.714176538020634299e-01
3.824990447076805355e-01
3.916698509743981593e-01
3.824990447076805355e-01
3.897592663354986775e-01
3.840275124188001765e-01
3.870844478410393474e-01
3.855559801299197620e-01
3.882307986243790365e-01
3.870844478410393474e-01
3.962552541077569712e-01
3.779136415743217237e-01
3.821169277799006392e-01
3.824990447076805355e-01
3.851738632021398656e-01
3.867023309132594511e-01
3.790599923576614683e-01
3.744745892243026564e-01
3.763851738632021382e-01
3.794421092854413646e-01
3.763851738632021382e-01
3.836453954910202246e-01
3.760030569354222418e-01
3.870844478410393474e-01
3.901413832632785739e-01
3.958731371799770749e-01
3.824990447076805355e-01
3.779136415743217237e-01
3.916698509743981593e-01
3.851738632021398656e-01
3.790599923576614683e-01
3.870844478410393474e-01
3.748567061520825527e-01
3.840275124188001765e-01
3.855559801299197620e-01
3.824990447076805355e-01
3.809705769965609501e-01
3.840275124188001765e-01
3.763851738632021382e-01
3.840275124188001765e-01
3.790599923576614683e-01
3.905235001910584702e-01
3.928162017577378484e-01
3.840275124188001765e-01
3.809705769965609501e-01
3.947267863966373858e-01
3.867023309132594511e-01
3.882307986243790365e-01
3.993121895299961976e-01
3.840275124188001765e-01
3.805884600687810537e-01
3.779136415743217237e-01
3.809705769965609501e-01
3.836453954910202246e-01
3.840275124188001765e-01
3.794421092854413646e-01
3.821169277799006392e-01
3.779136415743217237e-01
3.943446694688574894e-01
3.931983186855177448e-01
3.870844478410393474e-01
3.870844478410393474e-01
3.733282384409629118e-01
3.809705769965609501e-01
3.775315246465418273e-01
3.916698509743981593e-01
3.809705769965609501e-01
3.916698509743981593e-01
3.870844478410393474e-01
3.870844478410393474e-01
3.912877340466182630e-01
3.760030569354222418e-01
3.855559801299197620e-01
3.916698509743981593e-01
3.882307986243790365e-01
3.748567061520825527e-01
3.836453954910202246e-01
3.901413832632785739e-01
3.889950324799388848e-01
3.733282384409629118e-01
3.993121895299961976e-01
3.855559801299197620e-01
3.897592663354986775e-01
3.840275124188001765e-01
3.763851738632021382e-01
3.809705769965609501e-01
3.901413832632785739e-01
3.840275124188001765e-01
3.836453954910202246e-01
3.855559801299197620e-01
3.935804356132976967e-01
3.901413832632785739e-01
3.794421092854413646e-01
3.855559801299197620e-01
3.809705769965609501e-01
3.916698509743981593e-01
3.886129155521589329e-01
3.840275124188001765e-01
3.855559801299197620e-01
3.901413832632785739e-01
3.977837218188765567e-01
3.809705769965609501e-01
3.870844478410393474e-01
3.962552541077569712e-01
3.855559801299197620e-01
3.867023309132594511e-01
3.958731371799770749e-01
3.886129155521589329e-01
3.886129155521589329e-01
3.779136415743217237e-01
3.821169277799006392e-01
3.886129155521589329e-01
3.824990447076805355e-01
3.943446694688574894e-01
3.989300726022163013e-01
3.943446694688574894e-01
3.897592663354986775e-01
3.855559801299197620e-01
4.019870080244554722e-01
3.779136415743217237e-01
3.947267863966373858e-01
3.943446694688574894e-01
3.851738632021398656e-01
3.882307986243790365e-01
3.993121895299961976e-01
3.779136415743217237e-01
3.855559801299197620e-01
3.912877340466182630e-01
3.882307986243790365e-01
3.760030569354222418e-01
3.794421092854413646e-01
3.897592663354986775e-01
3.916698509743981593e-01
3.962552541077569712e-01
3.733282384409629118e-01
3.874665647688192438e-01
3.775315246465418273e-01
3.870844478410393474e-01
3.763851738632021382e-01
3.809705769965609501e-01
3.977837218188765567e-01
3.958731371799770749e-01
3.901413832632785739e-01
3.916698509743981593e-01
3.805884600687810537e-01
3.882307986243790365e-01
3.798242262132212610e-01
3.855559801299197620e-01
3.901413832632785739e-01
3.794421092854413646e-01
3.855559801299197620e-01
3.901413832632785739e-01
3.947267863966373858e-01
3.886129155521589329e-01
3.779136415743217237e-01
3.809705769965609501e-01
3.931983186855177448e-01
3.748567061520825527e-01
3.809705769965609501e-01
3.931983186855177448e-01
3.821169277799006392e-01
3.882307986243790365e-01
3.947267863966373858e-01
3.882307986243790365e-01
3.867023309132594511e-01
3.855559801299197620e-01
3.943446694688574894e-01
3.824990447076805355e-01
3.794421092854413646e-01
3.962552541077569712e-01
3.901413832632785739e-01
3.943446694688574894e-01
3.840275124188001765e-01
3.836453954910202246e-01
3.821169277799006392e-01
3.748567061520825527e-01
3.763851738632021382e-01
3.809705769965609501e-01
3.886129155521589329e-01
3.824990447076805355e-01
3.748567061520825527e-01
3.870844478410393474e-01
3.870844478410393474e-01
3.744745892243026564e-01
3.855559801299197620e-01
3.763851738632021382e-01
3.790599923576614683e-01
3.763851738632021382e-01
3.943446694688574894e-01
3.779136415743217237e-01
3.821169277799006392e-01
3.809705769965609501e-01
3.821169277799006392e-01
3.855559801299197620e-01
3.947267863966373858e-01
3.760030569354222418e-01
3.886129155521589329e-01
3.886129155521589329e-01
3.779136415743217237e-01
3.916698509743981593e-01
3.962552541077569712e-01
3.870844478410393474e-01
3.901413832632785739e-01
3.844096293465800729e-01
3.779136415743217237e-01
3.840275124188001765e-01
3.779136415743217237e-01
3.790599923576614683e-01
3.809705769965609501e-01
3.824990447076805355e-01
3.855559801299197620e-01
3.897592663354986775e-01
3.886129155521589329e-01
3.794421092854413646e-01
3.886129155521589329e-01
3.855559801299197620e-01
3.790599923576614683e-01
3.962552541077569712e-01
3.916698509743981593e-01
4.008406572411157831e-01
3.851738632021398656e-01
3.931983186855177448e-01
3.947267863966373858e-01
4.004585403133358867e-01
4.161253343523118042e-01
4.084829957967138214e-01
3.951089033244172821e-01
3.958731371799770749e-01
4.038975926633550095e-01
3.996943064577760940e-01
4.100114635078334069e-01
4.054260603744745950e-01
4.218570882690103052e-01
4.176538020634313897e-01
4.252961406190294280e-01
4.359954145968666372e-01
4.230034390523499943e-01
4.249140236912495316e-01
4.359954145968666372e-01
4.508979747802827620e-01
4.325563622468475145e-01
4.543370271303018848e-01
4.463125716469239501e-01
4.524264424914023475e-01
4.680932365303783205e-01
4.573939625525410557e-01
4.680932365303783205e-01
4.650363011081390940e-01
4.665647688192586795e-01
4.879633167749331535e-01
4.772640427970958887e-01
4.879633167749331535e-01
4.757355750859763033e-01
4.894917844860527389e-01
4.986625907527703627e-01
5.032479938861291746e-01
5.028658769583492782e-01
5.059228123805884492e-01
5.181505540695452439e-01
5.303782957585021496e-01
5.196790217806648293e-01
5.261750095529231785e-01
5.414596866641192552e-01
5.384027512418799732e-01
5.414596866641192552e-01
5.491020252197171825e-01
5.460450897974780116e-01
5.567443637753152208e-01
5.552158960641956353e-01
5.643867023309132591e-01
5.762323270920901574e-01
5.747038593809705720e-01
5.750859763087504684e-01
5.888421857088268485e-01
5.930454719144058195e-01
5.930454719144058195e-01
5.964845242644248868e-01
5.995414596866641688e-01
5.980129919755444723e-01
6.037447458922430288e-01
6.175009552923194089e-01
6.129155521589606526e-01
6.209400076423385872e-01
6.178830722200993053e-01
6.331677493312953819e-01
6.282002292701566182e-01
6.316392816201757965e-01
6.408100878868934203e-01
6.392816201757738348e-01
6.469239587313717621e-01
6.438670233091325912e-01
6.515093618647306295e-01
6.438670233091325912e-01
6.652655712648070097e-01
6.591517004203286678e-01
6.637371035536874242e-01
6.637371035536874242e-01
6.694688574703859807e-01
6.618265189147879424e-01
6.698509743981658771e-01
6.683225066870462916e-01
6.652655712648070097e-01
6.816965991593427754e-01
6.748184944593045298e-01
6.866641192204814281e-01
6.923958731371799846e-01
6.713794421092854625e-01
6.836071837982422572e-01
6.927779900649598810e-01
6.881925869316011246e-01
6.923958731371799846e-01
6.954528085594191555e-01
6.943064577760794664e-01
6.912495223538402955e-01
6.958349254871990519e-01
6.923958731371799846e-01
7.019487963316775048e-01
6.912495223538402955e-01
6.973633931983186374e-01
6.912495223538402955e-01
6.927779900649598810e-01
6.988918609094383338e-01
7.080626671761559576e-01
7.061520825372563648e-01
7.050057317539166757e-01
6.927779900649598810e-01
7.137944210928544031e-01
6.897210546427207101e-01
7.004203286205579193e-01
7.126480703095147140e-01
7.111196025983951285e-01
7.015666794038976084e-01
7.065341994650362611e-01
6.988918609094383338e-01
7.004203286205579193e-01
7.004203286205579193e-01
6.969812762705387410e-01
7.095911348872755431e-01
7.080626671761559576e-01
7.076805502483759502e-01
7.004203286205579193e-01
7.050057317539166757e-01
7.080626671761559576e-01
7.065341994650362611e-01
7.030951471150171939e-01
6.973633931983186374e-01
7.095911348872755431e-01
6.927779900649598810e-01
7.065341994650362611e-01
6.962170424149789483e-01
7.092090179594956467e-01
6.958349254871990519e-01
7.019487963316775048e-01
6.881925869316011246e-01
6.943064577760794664e-01
6.866641192204814281e-01
6.851356515093618427e-01
6.893389377149408137e-01
6.973633931983186374e-01
6.790217806648835008e-01
6.958349254871990519e-01
6.820787160871226718e-01
6.836071837982422572e-01
6.729079098204050480e-01
6.881925869316011246e-01
6.771111960259839080e-01
6.774933129537638044e-01
6.820787160871226718e-01
6.744363775315246334e-01
6.725257928926251516e-01
6.820787160871226718e-01
6.786396637371036045e-01
6.652655712648070097e-01
6.774933129537638044e-01
6.683225066870462916e-01
6.618265189147879424e-01
6.606801681314482533e-01
6.725257928926251516e-01
6.606801681314482533e-01
6.576232327092089713e-01
6.725257928926251516e-01
6.545662972869698004e-01
6.622086358425678387e-01
6.606801681314482533e-01
6.591517004203286678e-01
6.606801681314482533e-01
6.606801681314482533e-01
6.438670233091325912e-01
6.469239587313717621e-01
6.511272449369507331e-01
6.396637371035537312e-01
6.511272449369507331e-01
6.495987772258311477e-01
6.392816201757738348e-01
6.285823461979365145e-01
6.453954910202521766e-01
6.301108139090562110e-01
6.373710355368742420e-01
6.362246847535345529e-01
6.266717615590370327e-01
6.316392816201757965e-01
6.362246847535345529e-01
6.404279709591135239e-01
6.117692013756209635e-01
6.224684753534581727e-01
6.266717615590370327e-01
6.239969430645777582e-01
6.163546045089797198e-01
6.190294230034391054e-01
6.209400076423385872e-01
6.132976690867405489e-01
6.239969430645777582e-01
6.132976690867405489e-01
6.194115399312190018e-01
6.194115399312190018e-01
6.025983951089033397e-01
6.159724875811998235e-01
6.071837982422620961e-01
6.106228505922812744e-01
6.194115399312190018e-01
6.037447458922430288e-01
6.071837982422620961e-01
6.056553305311425106e-01
5.991593427588842724e-01
5.934275888421857159e-01
6.056553305311425106e-01
5.980129919755444723e-01
5.857852502865876776e-01
6.056553305311425106e-01
5.980129919755444723e-01
5.945739396255254050e-01
5.857852502865876776e-01
5.888421857088268485e-01
5.934275888421857159e-01
6.041268628200229251e-01
5.838746656476881958e-01
5.903706534199465450e-01
5.945739396255254050e-01
5.827283148643485067e-01
5.873137179977072631e-01
5.888421857088268485e-01
5.964845242644248868e-01
5.949560565533053014e-01
5.796713794421093358e-01
5.903706534199465450e-01
5.888421857088268485e-01
5.827283148643485067e-01
5.827283148643485067e-01
5.838746656476881958e-01
5.750859763087504684e-01
5.747038593809705720e-01
5.701184562476118156e-01
5.796713794421093358e-01
5.689721054642720155e-01
5.781429117309896393e-01
5.689721054642720155e-01
5.689721054642720155e-01
5.823461979365686103e-01
5.670615208253725337e-01
5.735575085976308829e-01
5.655330531142529482e-01
5.643867023309132591e-01
5.720290408865112974e-01
5.582728314864348063e-01
5.670615208253725337e-01
5.674436377531524300e-01
5.578907145586549099e-01
5.491020252197171825e-01
5.689721054642720155e-01
5.609476499808941918e-01
5.536874283530760499e-01
5.594191822697746064e-01
5.624761176920137773e-01
5.414596866641192552e-01
5.598012991975545027e-01
5.582728314864348063e-01
5.536874283530760499e-01
5.456629728696981152e-01
5.521589606419564644e-01
5.471914405808177007e-01
5.384027512418799732e-01
5.521589606419564644e-01
5.502483760030569826e-01
5.364921666029804914e-01
5.364921666029804914e-01
5.475735575085975970e-01
5.395491020252196623e-01
5.353458158196408023e-01
5.364921666029804914e-01
5.364921666029804914e-01
5.384027512418799732e-01
5.349636988918609060e-01
5.322888803974016314e-01
5.349636988918609060e-01
5.338173481085212169e-01
5.319067634696217350e-01
5.353458158196408023e-01
5.246465418418035931e-01
5.277034772640427640e-01
5.200611387084448367e-01
5.307604126862820459e-01
5.322888803974016314e-01
5.288498280473824531e-01
5.322888803974016314e-01
5.185326709973251402e-01
5.246465418418035931e-01
5.139472678639663838e-01
5.215896064195644222e-01
5.200611387084448367e-01
5.154757355750859693e-01
5.246465418418035931e-01
5.185326709973251402e-01
5.170042032862055548e-01
5.108903324417272129e-01
5.231180741306840076e-01
5.078333970194879310e-01
5.093618647306075164e-01
5.074512800917080346e-01
5.204432556362247331e-01
5.108903324417272129e-01
5.066870462361482419e-01
5.089797478028276201e-01
5.154757355750859693e-01
4.982804738249904664e-01
5.028658769583492782e-01
5.185326709973251402e-01
5.021016431027894855e-01
4.971341230416507218e-01
4.956056553305311363e-01
4.940771876194115508e-01
5.047764615972487601e-01
4.986625907527703627e-01
4.986625907527703627e-01
4.998089415361100518e-01
4.956056553305311363e-01
5.028658769583492782e-01
4.963698891860909290e-01
5.013374092472296928e-01
4.998089415361100518e-01
5.078333970194879310e-01
4.910202521971723244e-01
4.860527321360336162e-01
4.906381352693924280e-01
5.059228123805884492e-01
4.967520061138708254e-01
5.108903324417272129e-01
4.956056553305311363e-01
4.986625907527703627e-01
4.894917844860527389e-01
5.017195261750095892e-01
4.967520061138708254e-01
4.952235384027512399e-01
4.998089415361100518e-01
4.936950706916316545e-01
4.971341230416507218e-01
4.925487199082919099e-01
4.925487199082919099e-01
4.910202521971723244e-01
4.849063813526939271e-01
4.879633167749331535e-01
4.894917844860527389e-01
4.879633167749331535e-01
4.849063813526939271e-01
4.860527321360336162e-01
4.967520061138708254e-01
4.879633167749331535e-01
4.879633167749331535e-01
4.925487199082919099e-01
4.894917844860527389e-01
4.891096675582728426e-01
5.063049293083683455e-01
4.956056553305311363e-01
4.860527321360336162e-01
4.910202521971723244e-01
4.864348490638135125e-01
4.879633167749331535e-01
5.028658769583492782e-01
5.001910584638900037e-01
4.971341230416507218e-01
4.967520061138708254e-01
5.028658769583492782e-01
4.952235384027512399e-01
4.975162399694306181e-01
4.940771876194115508e-01
4.998089415361100518e-01
5.063049293083683455e-01
4.921666029805120135e-01
4.998089415361100518e-01
5.017195261750095892e-01
4.971341230416507218e-01
5.013374092472296928e-01
5.001910584638900037e-01
5.043943446694688637e-01
4.971341230416507218e-01
4.971341230416507218e-01
4.940771876194115508e-01
4.933129537638517581e-01
4.864348490638135125e-01
5.028658769583492782e-01
4.875811998471532016e-01
5.032479938861291746e-01
5.013374092472296928e-01
5.017195261750095892e-01
4.986625907527703627e-01
5.043943446694688637e-01
4.971341230416507218e-01
4.998089415361100518e-01
4.879633167749331535e-01
4.894917844860527389e-01
4.925487199082919099e-01
4.956056553305311363e-01
4.864348490638135125e-01
4.967520061138708254e-01
5.032479938861291746e-01
4.956056553305311363e-01
4.971341230416507218e-01
4.990447076805502591e-01
5.032479938861291746e-01
5.063049293083683455e-01
4.875811998471532016e-01
4.864348490638135125e-01
4.982804738249904664e-01
4.956056553305311363e-01
4.952235384027512399e-01
5.047764615972487601e-01
4.986625907527703627e-01
4.952235384027512399e-01
4.894917844860527389e-01
4.986625907527703627e-01
4.906381352693924280e-01
4.967520061138708254e-01
4.952235384027512399e-01
4.906381352693924280e-01
4.864348490638135125e-01
4.894917844860527389e-01
4.925487199082919099e-01
4.864348490638135125e-01
4.803209782193351152e-01
4.799388612915552188e-01
4.906381352693924280e-01
4.925487199082919099e-01
4.860527321360336162e-01
4.860527321360336162e-01
4.875811998471532016e-01
4.833779136415743416e-01
4.849063813526939271e-01
4.860527321360336162e-01
4.784103935804356333e-01
4.768819258693159924e-01
4.707680550248375950e-01
4.925487199082919099e-01
4.787925105082155297e-01
4.768819258693159924e-01
4.849063813526939271e-01
4.726786396637370768e-01
4.680932365303783205e-01
4.692395873137180096e-01
4.833779136415743416e-01
4.814673290026748043e-01
4.845242644249140307e-01
4.757355750859763033e-01
4.772640427970958887e-01
4.646541841803591977e-01
4.589224302636606967e-01
4.784103935804356333e-01
4.791746274359954261e-01
4.757355750859763033e-01
4.680932365303783205e-01
4.738249904470768215e-01
4.635078333970195086e-01
4.604508979747802822e-01
4.677111196025983686e-01
4.749713412304165105e-01
4.589224302636606967e-01
4.738249904470768215e-01
4.554833779136415739e-01
4.558654948414214703e-01
4.677111196025983686e-01
4.573939625525410557e-01
4.696217042414979059e-01
4.646541841803591977e-01
4.665647688192586795e-01
4.528085594191822438e-01
4.466946885747038465e-01
4.600687810470003858e-01
4.615972487581199712e-01
4.451662208635842610e-01
4.528085594191822438e-01
4.543370271303018848e-01
4.554833779136415739e-01
4.447841039358043647e-01
4.451662208635842610e-01
4.512800917080626584e-01
4.417271685135651382e-01
4.447841039358043647e-01
4.508979747802827620e-01
4.478410393580435356e-01
4.539549102025219884e-01
4.497516239969430729e-01
4.512800917080626584e-01
4.478410393580435356e-01
4.371417653802063263e-01
4.451662208635842610e-01
4.455483377913641574e-01
4.589224302636606967e-01
4.375238823079862227e-01
4.390523500191058637e-01
4.390523500191058637e-01
4.451662208635842610e-01
4.325563622468475145e-01
4.359954145968666372e-01
4.375238823079862227e-01
4.359954145968666372e-01
4.325563622468475145e-01
4.359954145968666372e-01
4.340848299579671554e-01
4.375238823079862227e-01
4.417271685135651382e-01
4.310278945357279290e-01
4.298815437523882399e-01
4.272067252579289098e-01
4.344669468857470518e-01
4.268246083301490135e-01
4.432556362246847792e-01
4.264424914023691171e-01
4.237676729079098426e-01
4.340848299579671554e-01
4.314100114635078254e-01
4.329384791746274108e-01
4.298815437523882399e-01
4.314100114635078254e-01
4.359954145968666372e-01
4.237676729079098426e-01
4.329384791746274108e-01
4.252961406190294280e-01
4.275888421857088062e-01
4.283530760412686544e-01
4.268246083301490135e-01
4.329384791746274108e-01
4.268246083301490135e-01
4.176538020634313897e-01
4.222392051967902016e-01
4.207107374856706161e-01
4.237676729079098426e-01
4.237676729079098426e-01
4.298815437523882399e-01
4.237676729079098426e-01
4.203286205578907198e-01
4.252961406190294280e-01
4.249140236912495316e-01
4.252961406190294280e-01
4.237676729079098426e-01
4.268246083301490135e-01
4.222392051967902016e-01
4.142147497134123224e-01
4.142147497134123224e-01
4.065724111578142841e-01
4.023691249522353686e-01
4.054260603744745950e-01
4.084829957967138214e-01
4.191822697745510307e-01
4.038975926633550095e-01
4.023691249522353686e-01
4.042797095911349059e-01
3.996943064577760940e-01
4.188001528467711343e-01
4.111578142911730960e-01
4.054260603744745950e-01
4.054260603744745950e-01
4.176538020634313897e-01
4.115399312189529923e-01
4.111578142911730960e-01
4.161253343523118042e-01
4.008406572411157831e-01
3.993121895299961976e-01
3.993121895299961976e-01
3.977837218188765567e-01
3.993121895299961976e-01
3.977837218188765567e-01
4.111578142911730960e-01
4.023691249522353686e-01
3.916698509743981593e-01
4.038975926633550095e-01
3.977837218188765567e-01
4.023691249522353686e-01
4.008406572411157831e-01
3.901413832632785739e-01
3.916698509743981593e-01
3.882307986243790365e-01
3.912877340466182630e-01
4.069545280855941805e-01
4.008406572411157831e-01
3.977837218188765567e-01
3.844096293465800729e-01
3.974016048910966603e-01
3.962552541077569712e-01
3.931983186855177448e-01
3.993121895299961976e-01
3.851738632021398656e-01
3.989300726022163013e-01
3.943446694688574894e-01
3.886129155521589329e-01
3.931983186855177448e-01
3.886129155521589329e-01
3.886129155521589329e-01
3.870844478410393474e-01
3.805884600687810537e-01
3.794421092854413646e-01
3.916698509743981593e-01
3.821169277799006392e-01
3.840275124188001765e-01
3.851738632021398656e-01
3.760030569354222418e-01
3.882307986243790365e-01
3.916698509743981593e-01
3.824990447076805355e-01
3.779136415743217237e-01
3.763851738632021382e-01
3.897592663354986775e-01
3.824990447076805355e-01
3.824990447076805355e-01
3.836453954910202246e-01
3.775315246465418273e-01
3.870844478410393474e-01
3.748567061520825527e-01
3.729461215131830154e-01
3.790599923576614683e-01
3.840275124188001765e-01
3.790599923576614683e-01
3.790599923576614683e-01
3.855559801299197620e-01
3.763851738632021382e-01
3.763851738632021382e-01
3.824990447076805355e-01
3.779136415743217237e-01
3.840275124188001765e-01
3.779136415743217237e-01
3.763851738632021382e-01
3.855559801299197620e-01
3.760030569354222418e-01
3.794421092854413646e-01
3.714176538020634299e-01
3.717997707298433263e-01
3.760030569354222418e-01
3.744745892243026564e-01
3.717997707298433263e-01
3.748567061520825527e-01
3.779136415743217237e-01
3.653037829575850326e-01
3.691249522353840518e-01
3.653037829575850326e-01
3.714176538020634299e-01
3.687428353076040999e-01
3.729461215131830154e-01
3.790599923576614683e-01
3.779136415743217237e-01
3.775315246465418273e-01
3.794421092854413646e-01
3.717997707298433263e-01
3.809705769965609501e-01
3.763851738632021382e-01
3.794421092854413646e-01
3.607183798242262207e-01
3.767672907909820346e-01
3.714176538020634299e-01
3.668322506687046181e-01
3.595720290408865316e-01
3.641574321742453435e-01
3.656858998853649290e-01
3.744745892243026564e-01
3.714176538020634299e-01
3.717997707298433263e-01
3.698891860909438445e-01
3.779136415743217237e-01
3.622468475353458062e-01
3.763851738632021382e-01
3.675964845242644108e-01
3.760030569354222418e-01
3.867023309132594511e-01
3.595720290408865316e-01
3.702713030187237409e-01
3.672143675964845144e-01
3.717997707298433263e-01
3.687428353076040999e-01
3.775315246465418273e-01
3.687428353076040999e-01
3.653037829575850326e-01
3.622468475353458062e-01
3.698891860909438445e-01
3.683607183798242035e-01
3.687428353076040999e-01
3.733282384409629118e-01
3.641574321742453435e-01
3.748567061520825527e-01
3.637753152464653916e-01
3.656858998853649290e-01
3.767672907909820346e-01
3.733282384409629118e-01
3.641574321742453435e-01
3.714176538020634299e-01
3.702713030187237409e-01
3.733282384409629118e-01
3.717997707298433263e-01
3.698891860909438445e-01
3.733282384409629118e-01
3.717997707298433263e-01
3.763851738632021382e-01
3.656858998853649290e-01
3.656858998853649290e-01
3.717997707298433263e-01
3.668322506687046181e-01
3.702713030187237409e-01
3.779136415743217237e-01
3.733282384409629118e-01
3.748567061520825527e-01
3.760030569354222418e-01
3.824990447076805355e-01
3.687428353076040999e-01
3.809705769965609501e-01
3.729461215131830154e-01
3.656858998853649290e-01
3.656858998853649290e-01
3.779136415743217237e-01
3.794421092854413646e-01
3.798242262132212610e-01
3.714176538020634299e-01
3.656858998853649290e-01
3.668322506687046181e-01
3.733282384409629118e-01
3.714176538020634299e-01
3.656858998853649290e-01
3.729461215131830154e-01
3.668322506687046181e-01
3.779136415743217237e-01
3.702713030187237409e-01
3.687428353076040999e-01
3.645395491020252399e-01
3.645395491020252399e-01
3.744745892243026564e-01
3.824990447076805355e-01
3.733282384409629118e-01
3.729461215131830154e-01
3.641574321742453435e-01
3.714176538020634299e-01
3.790599923576614683e-01
3.744745892243026564e-01
3.607183798242262207e-01
3.748567061520825527e-01
3.668322506687046181e-01
3.687428353076040999e-01
3.683607183798242035e-01
3.840275124188001765e-01
3.687428353076040999e-01
3.656858998853649290e-01
3.729461215131830154e-01
3.748567061520825527e-01
3.775315246465418273e-01
3.748567061520825527e-01
3.653037829575850326e-01
3.870844478410393474e-01
3.595720290408865316e-01
3.790599923576614683e-01
3.779136415743217237e-01
3.641574321742453435e-01
3.744745892243026564e-01
3.733282384409629118e-01
3.760030569354222418e-01
3.611004967520061171e-01
3.714176538020634299e-01
3.779136415743217237e-01
3.698891860909438445e-01
3.626289644631257025e-01
3.775315246465418273e-01
3.653037829575850326e-01
3.637753152464653916e-01
3.687428353076040999e-01
3.683607183798242035e-01
3.729461215131830154e-01
3.637753152464653916e-01
3.744745892243026564e-01
3.595720290408865316e-01
3.717997707298433263e-01
3.656858998853649290e-01
3.779136415743217237e-01
3.668322506687046181e-01
3.672143675964845144e-01
3.702713030187237409e-01
3.824990447076805355e-01
3.729461215131830154e-01
3.733282384409629118e-01
3.637753152464653916e-01
3.626289644631257025e-01
3.851738632021398656e-01
3.779136415743217237e-01
3.702713030187237409e-01
3.637753152464653916e-01
3.748567061520825527e-01
3.729461215131830154e-01
3.870844478410393474e-01
3.546045089797478234e-01
3.561329766908674088e-01
3.622468475353458062e-01
3.656858998853649290e-01
3.733282384409629118e-01
3.702713030187237409e-01
3.565150936186473052e-01
3.687428353076040999e-01
3.546045089797478234e-01
3.653037829575850326e-01
3.763851738632021382e-01
3.748567061520825527e-01
3.779136415743217237e-01
3.580435613297668906e-01
3.824990447076805355e-01
3.641574321742453435e-01
3.702713030187237409e-01
3.672143675964845144e-01
3.664501337409247217e-01
3.641574321742453435e-01
3.794421092854413646e-01
3.775315246465418273e-01
3.641574321742453435e-01
3.687428353076040999e-01
3.775315246465418273e-01
3.698891860909438445e-01
3.672143675964845144e-01
3.626289644631257025e-01
3.626289644631257025e-01
3.656858998853649290e-01
3.591899121131066352e-01
3.611004967520061171e-01
3.668322506687046181e-01
3.668322506687046181e-01
3.626289644631257025e-01
3.702713030187237409e-01
3.687428353076040999e-01
3.698891860909438445e-01
3.805884600687810537e-01
3.595720290408865316e-01
3.779136415743217237e-01
3.637753152464653916e-01
3.733282384409629118e-01
3.595720290408865316e-01
3.748567061520825527e-01
3.626289644631257025e-01
3.565150936186473052e-01
3.702713030187237409e-01
3.607183798242262207e-01
3.702713030187237409e-01
3.626289644631257025e-01
3.591899121131066352e-01
3.687428353076040999e-01
3.611004967520061171e-01
3.641574321742453435e-01
3.653037829575850326e-01
3.626289644631257025e-01
3.717997707298433263e-01
3.565150936186473052e-01
3.637753152464653916e-01
3.637753152464653916e-01
3.641574321742453435e-01
3.515475735575085969e-01
3.591899121131066352e-01
3.626289644631257025e-01
3.626289644631257025e-01
3.637753152464653916e-01
3.637753152464653916e-01
3.534581581964080788e-01
3.779136415743217237e-01
3.622468475353458062e-01
3.698891860909438445e-01
3.549866259075277197e-01
3.790599923576614683e-01
3.595720290408865316e-01
3.683607183798242035e-01
3.611004967520061171e-01
3.672143675964845144e-01
3.760030569354222418e-01
3.733282384409629118e-01
3.668322506687046181e-01
3.729461215131830154e-01
3.748567061520825527e-01
3.912877340466182630e-01
3.882307986243790365e-01
3.836453954910202246e-01
3.882307986243790365e-01
3.840275124188001765e-01
3.931983186855177448e-01
4.023691249522353686e-01
4.004585403133358867e-01
3.931983186855177448e-01
3.977837218188765567e-01
4.023691249522353686e-01
4.050439434466946986e-01
4.130683989300725778e-01
4.222392051967902016e-01
4.249140236912495316e-01
4.207107374856706161e-01
4.207107374856706161e-01
4.421092854413450346e-01
4.463125716469239501e-01
4.436377531524646756e-01
4.508979747802827620e-01
4.497516239969430729e-01
4.585403133358808003e-01
4.589224302636606967e-01
4.524264424914023475e-01
4.619793656858998676e-01
4.665647688192586795e-01
4.784103935804356333e-01
4.768819258693159924e-01
4.849063813526939271e-01
4.967520061138708254e-01
4.936950706916316545e-01
5.120366832250669020e-01
5.063049293083683455e-01
5.170042032862055548e-01
5.059228123805884492e-01
5.074512800917080346e-01
5.277034772640427640e-01
5.105082155139473166e-01
5.395491020252196623e-01
5.292319449751623495e-01
5.380206343141000769e-01
5.521589606419564644e-01
5.456629728696981152e-01
5.578907145586549099e-01
5.491020252197171825e-01
5.735575085976308829e-01
5.659151700420328446e-01
5.674436377531524300e-01
5.674436377531524300e-01
5.811998471532289212e-01
5.823461979365686103e-01
5.842567825754680921e-01
5.823461979365686103e-01
5.976308750477645759e-01
5.873137179977072631e-01
6.132976690867405489e-01
6.022162781811234433e-01
6.144440198700802380e-01
6.129155521589606526e-01
6.190294230034391054e-01
6.316392816201757965e-01
6.163546045089797198e-01
6.236148261367978618e-01
6.194115399312190018e-01
6.331677493312953819e-01
6.251432938479174473e-01
6.377531524646541383e-01
6.480703095147114512e-01
6.362246847535345529e-01
6.515093618647306295e-01
6.484524264424913476e-01
6.572411157814290750e-01
6.545662972869698004e-01
6.683225066870462916e-01
6.602980512036683569e-01
6.591517004203286678e-01
6.664119220481466987e-01
6.694688574703859807e-01
6.667940389759265951e-01
6.560947649980893859e-01
6.698509743981658771e-01
6.759648452426442189e-01
6.637371035536874242e-01
6.790217806648835008e-01
6.744363775315246334e-01
6.683225066870462916e-01
6.847535345815819463e-01
6.816965991593427754e-01
6.847535345815819463e-01
6.912495223538402955e-01
7.004203286205579193e-01
6.820787160871226718e-01
6.820787160871226718e-01
6.832250668704623608e-01
6.901031715705006064e-01
7.065341994650362611e-01
6.866641192204814281e-01
6.809323653037829827e-01
6.943064577760794664e-01
6.973633931983186374e-01
6.985097439816584375e-01
7.004203286205579193e-01
6.939243408482995701e-01
6.988918609094383338e-01
6.943064577760794664e-01
6.973633931983186374e-01
6.820787160871226718e-01
6.969812762705387410e-01
6.943064577760794664e-01
6.939243408482995701e-01
7.034772640427970902e-01
6.881925869316011246e-01
6.881925869316011246e-01
7.004203286205579193e-01
6.988918609094383338e-01
6.878104700038211172e-01
6.927779900649598810e-01
6.897210546427207101e-01
6.927779900649598810e-01
6.836071837982422572e-01
6.801681314482231899e-01
6.801681314482231899e-01
6.866641192204814281e-01
6.851356515093618427e-01
6.729079098204050480e-01
6.847535345815819463e-01
6.744363775315246334e-01
6.923958731371799846e-01
6.759648452426442189e-01
6.755827283148643225e-01
6.786396637371036045e-01
6.618265189147879424e-01
6.698509743981658771e-01
6.759648452426442189e-01
6.725257928926251516e-01
6.771111960259839080e-01
6.771111960259839080e-01
6.732900267481849443e-01
6.637371035536874242e-01
6.729079098204050480e-01
6.664119220481466987e-01
6.648834543370271133e-01
6.618265189147879424e-01
6.576232327092089713e-01
6.637371035536874242e-01
6.637371035536874242e-01
6.599159342758884605e-01
6.576232327092089713e-01
6.453954910202521766e-01
6.534199465036301113e-01
6.545662972869698004e-01
6.591517004203286678e-01
6.545662972869698004e-01
6.480703095147114512e-01
6.572411157814290750e-01
6.591517004203286678e-01
6.557126480703094895e-01
6.388995032479939384e-01
6.373710355368742420e-01
6.404279709591135239e-01
6.408100878868934203e-01
6.434849063813526948e-01
6.408100878868934203e-01
6.316392816201757965e-01
6.285823461979365145e-01
6.438670233091325912e-01
6.282002292701566182e-01
6.270538784868169291e-01
6.255254107756973436e-01
6.312571646923959001e-01
6.316392816201757965e-01
6.255254107756973436e-01
6.285823461979365145e-01
6.239969430645777582e-01
6.209400076423385872e-01
6.270538784868169291e-01
6.159724875811998235e-01
6.132976690867405489e-01
6.148261367978601344e-01
6.132976690867405489e-01
6.194115399312190018e-01
6.102407336645013780e-01
6.052732136033626142e-01
6.178830722200993053e-01
6.148261367978601344e-01
6.068016813144821997e-01
6.117692013756209635e-01
6.083301490256017852e-01
6.144440198700802380e-01
6.136797860145204453e-01
6.102407336645013780e-01
6.041268628200229251e-01
6.087122659533816815e-01
6.025983951089033397e-01
6.025983951089033397e-01
5.980129919755444723e-01
5.930454719144058195e-01
6.071837982422620961e-01
5.976308750477645759e-01
6.041268628200229251e-01
5.842567825754680921e-01
5.915170042032862341e-01
5.842567825754680921e-01
6.022162781811234433e-01
5.899885364921666486e-01
5.980129919755444723e-01
5.796713794421093358e-01
5.842567825754680921e-01
5.899885364921666486e-01
5.811998471532289212e-01
5.980129919755444723e-01
5.888421857088268485e-01
5.899885364921666486e-01
5.918991211310661305e-01
5.888421857088268485e-01
5.857852502865876776e-01
5.750859763087504684e-01
5.827283148643485067e-01
5.811998471532289212e-01
5.823461979365686103e-01
5.796713794421093358e-01
5.792892625143294394e-01
5.735575085976308829e-01
5.796713794421093358e-01
5.720290408865112974e-01
5.766144440198700538e-01
5.731753916698509865e-01
5.827283148643485067e-01
5.750859763087504684e-01
5.811998471532289212e-01
5.659151700420328446e-01
5.567443637753152208e-01
5.781429117309896393e-01
5.808177302254490249e-01
5.708826901031716083e-01
5.578907145586549099e-01
5.628582346197936737e-01
5.674436377531524300e-01
5.628582346197936737e-01
5.750859763087504684e-01
5.598012991975545027e-01
5.628582346197936737e-01
5.655330531142529482e-01
5.609476499808941918e-01
5.506304929308368790e-01
5.429881543752388406e-01
5.460450897974780116e-01
5.460450897974780116e-01
5.506304929308368790e-01
5.475735575085975970e-01
5.491020252197171825e-01
5.410775697363393588e-01
5.399312189529996697e-01
5.456629728696981152e-01
5.471914405808177007e-01
5.380206343141000769e-01
5.491020252197171825e-01
5.475735575085975970e-01
5.322888803974016314e-01
5.384027512418799732e-01
5.456629728696981152e-01
5.364921666029804914e-01
5.410775697363393588e-01
5.231180741306840076e-01
5.219717233473443185e-01
5.380206343141000769e-01
5.322888803974016314e-01
5.349636988918609060e-01
5.154757355750859693e-01
5.288498280473824531e-01
5.292319449751623495e-01
5.292319449751623495e-01
5.139472678639663838e-01
5.307604126862820459e-01
5.135651509361864875e-01
5.166220863584256584e-01
5.257928926251432822e-01
5.093618647306075164e-01
5.185326709973251402e-01
5.139472678639663838e-01
5.181505540695452439e-01
5.154757355750859693e-01
5.120366832250669020e-01
5.047764615972487601e-01
5.074512800917080346e-01
5.120366832250669020e-01
5.170042032862055548e-01
5.200611387084448367e-01
5.212074894917845258e-01
5.105082155139473166e-01
5.063049293083683455e-01
5.047764615972487601e-01
5.001910584638900037e-01
5.032479938861291746e-01
5.078333970194879310e-01
5.001910584638900037e-01
5.017195261750095892e-01
5.078333970194879310e-01
5.063049293083683455e-01
5.063049293083683455e-01
5.063049293083683455e-01
5.032479938861291746e-01
5.093618647306075164e-01
5.063049293083683455e-01
5.032479938861291746e-01
5.078333970194879310e-01
4.894917844860527389e-01
4.891096675582728426e-01
5.043943446694688637e-01
5.093618647306075164e-01
5.028658769583492782e-01
5.017195261750095892e-01
4.940771876194115508e-01
4.952235384027512399e-01
4.971341230416507218e-01
4.925487199082919099e-01
4.986625907527703627e-01
5.028658769583492782e-01
4.891096675582728426e-01
5.001910584638900037e-01
4.894917844860527389e-01
5.047764615972487601e-01
4.940771876194115508e-01
4.860527321360336162e-01
4.814673290026748043e-01
4.982804738249904664e-01
4.925487199082919099e-01
4.967520061138708254e-01
4.936950706916316545e-01
4.956056553305311363e-01
4.952235384027512399e-01
4.849063813526939271e-01
5.001910584638900037e-01
4.940771876194115508e-01
4.910202521971723244e-01
5.059228123805884492e-01
4.940771876194115508e-01
5.001910584638900037e-01
4.971341230416507218e-01
4.971341230416507218e-01
4.849063813526939271e-01
4.910202521971723244e-01
4.910202521971723244e-01
4.971341230416507218e-01
4.940771876194115508e-01
4.982804738249904664e-01
4.967520061138708254e-01
4.910202521971723244e-01
4.971341230416507218e-01
4.936950706916316545e-01
4.864348490638135125e-01
4.971341230416507218e-01
4.940771876194115508e-01
4.910202521971723244e-01
5.001910584638900037e-01
4.956056553305311363e-01
5.017195261750095892e-01
5.028658769583492782e-01
4.849063813526939271e-01
4.971341230416507218e-01
4.883454337027130499e-01
4.875811998471532016e-01
4.956056553305311363e-01
4.818494459304547006e-01
4.875811998471532016e-01
4.906381352693924280e-01
4.787925105082155297e-01
4.845242644249140307e-01
5.001910584638900037e-01
4.956056553305311363e-01
4.849063813526939271e-01
4.883454337027130499e-01
4.845242644249140307e-01
4.956056553305311363e-01
4.849063813526939271e-01
4.864348490638135125e-01
4.833779136415743416e-01
4.894917844860527389e-01
4.849063813526939271e-01
4.833779136415743416e-01
4.803209782193351152e-01
4.864348490638135125e-01
5.063049293083683455e-01
4.845242644249140307e-01
4.864348490638135125e-01
4.860527321360336162e-01
4.776461597248757851e-01
4.906381352693924280e-01
4.879633167749331535e-01
4.787925105082155297e-01
4.936950706916316545e-01
4.891096675582728426e-01
4.833779136415743416e-01
4.818494459304547006e-01
4.849063813526939271e-01
4.772640427970958887e-01
4.875811998471532016e-01
4.722965227359571805e-01
4.753534581581964069e-01
4.799388612915552188e-01
4.833779136415743416e-01
4.803209782193351152e-01
4.894917844860527389e-01
4.757355750859763033e-01
4.680932365303783205e-01
4.784103935804356333e-01
4.803209782193351152e-01
4.803209782193351152e-01
4.753534581581964069e-01
4.742071073748567178e-01
4.768819258693159924e-01
4.849063813526939271e-01
4.742071073748567178e-01
4.818494459304547006e-01
4.787925105082155297e-01
4.722965227359571805e-01
4.833779136415743416e-01
4.738249904470768215e-01
4.807030951471150115e-01
4.711501719526174914e-01
4.818494459304547006e-01
4.814673290026748043e-01
4.772640427970958887e-01
4.665647688192586795e-01
4.810852120748949079e-01
4.818494459304547006e-01
4.696217042414979059e-01
4.787925105082155297e-01
4.711501719526174914e-01
4.711501719526174914e-01
4.722965227359571805e-01
4.742071073748567178e-01
4.833779136415743416e-01
4.742071073748567178e-01
4.833779136415743416e-01
4.726786396637370768e-01
4.638899503247994049e-01
4.600687810470003858e-01
4.707680550248375950e-01
4.711501719526174914e-01
4.669468857470385759e-01
4.615972487581199712e-01
4.573939625525410557e-01
4.635078333970195086e-01
4.573939625525410557e-01
4.631257164692396122e-01
4.646541841803591977e-01
4.646541841803591977e-01
4.543370271303018848e-01
4.665647688192586795e-01
4.753534581581964069e-01
4.650363011081390940e-01
4.573939625525410557e-01
4.665647688192586795e-01
4.600687810470003858e-01
4.619793656858998676e-01
4.635078333970195086e-01
4.600687810470003858e-01
4.466946885747038465e-01
4.436377531524646756e-01
4.482231562858234875e-01
4.619793656858998676e-01
4.558654948414214703e-01
4.447841039358043647e-01
4.589224302636606967e-01
4.554833779136415739e-01
4.390523500191058637e-01
4.528085594191822438e-01
4.558654948414214703e-01
4.539549102025219884e-01
4.451662208635842610e-01
4.436377531524646756e-01
4.405808177302254491e-01
4.573939625525410557e-01
4.440198700802445719e-01
4.386702330913259673e-01
4.421092854413450346e-01
4.524264424914023475e-01
4.421092854413450346e-01
4.466946885747038465e-01
4.386702330913259673e-01
4.314100114635078254e-01
4.390523500191058637e-01
4.447841039358043647e-01
4.375238823079862227e-01
4.379059992357661191e-01
4.436377531524646756e-01
4.405808177302254491e-01
4.421092854413450346e-01
4.375238823079862227e-01
4.268246083301490135e-01
4.344669468857470518e-01
4.344669468857470518e-01
4.298815437523882399e-01
4.344669468857470518e-01
4.375238823079862227e-01
4.497516239969430729e-01
4.268246083301490135e-01
4.294994268246083435e-01
4.264424914023691171e-01
4.375238823079862227e-01
4.329384791746274108e-01
4.272067252579289098e-01
4.348490638135269482e-01
4.222392051967902016e-01
4.249140236912495316e-01
4.237676729079098426e-01
4.298815437523882399e-01
4.145968666411922188e-01
4.115399312189529923e-01
4.233855559801299462e-01
4.237676729079098426e-01
4.145968666411922188e-01
4.294994268246083435e-01
4.249140236912495316e-01
4.203286205578907198e-01
4.115399312189529923e-01
4.191822697745510307e-01
4.172716851356514933e-01
4.294994268246083435e-01
4.207107374856706161e-01
4.203286205578907198e-01
4.145968666411922188e-01
4.084829957967138214e-01
4.203286205578907198e-01
4.188001528467711343e-01
4.191822697745510307e-01
4.038975926633550095e-01
4.233855559801299462e-01
4.203286205578907198e-01
4.191822697745510307e-01
4.008406572411157831e-01
4.065724111578142841e-01
4.191822697745510307e-01
4.115399312189529923e-01
4.218570882690103052e-01
4.161253343523118042e-01
3.962552541077569712e-01
4.008406572411157831e-01
4.207107374856706161e-01
4.038975926633550095e-01
4.130683989300725778e-01
4.084829957967138214e-01
3.939625525410775930e-01
4.084829957967138214e-01
4.038975926633550095e-01
3.977837218188765567e-01
4.161253343523118042e-01
4.038975926633550095e-01
4.023691249522353686e-01
4.008406572411157831e-01
4.004585403133358867e-01
3.962552541077569712e-01
3.989300726022163013e-01
4.004585403133358867e-01
3.974016048910966603e-01
3.928162017577378484e-01
3.977837218188765567e-01
4.004585403133358867e-01
3.962552541077569712e-01
3.977837218188765567e-01
3.993121895299961976e-01
4.038975926633550095e-01
3.901413832632785739e-01
4.008406572411157831e-01
3.855559801299197620e-01
3.958731371799770749e-01
3.775315246465418273e-01
3.836453954910202246e-01
3.886129155521589329e-01
3.855559801299197620e-01
3.962552541077569712e-01
3.943446694688574894e-01
3.928162017577378484e-01
3.993121895299961976e-01
3.931983186855177448e-01
3.931983186855177448e-01
3.901413832632785739e-01
3.977837218188765567e-01
3.840275124188001765e-01
3.928162017577378484e-01
3.851738632021398656e-01
3.947267863966373858e-01
3.931983186855177448e-01
3.958731371799770749e-01
3.886129155521589329e-01
3.886129155521589329e-01
3.931983186855177448e-01
3.931983186855177448e-01
3.809705769965609501e-01
3.870844478410393474e-01
3.867023309132594511e-01
3.901413832632785739e-01
3.916698509743981593e-01
3.851738632021398656e-01
3.809705769965609501e-01
3.824990447076805355e-01
3.779136415743217237e-01
3.882307986243790365e-01
3.840275124188001765e-01
3.870844478410393474e-01
3.782957585021016200e-01
3.855559801299197620e-01
3.821169277799006392e-01
3.805884600687810537e-01
3.809705769965609501e-01
3.824990447076805355e-01
3.786778754298815164e-01
3.672143675964845144e-01
3.672143675964845144e-01
3.748567061520825527e-01
3.824990447076805355e-01
3.794421092854413646e-01
3.809705769965609501e-01
3.855559801299197620e-01
3.748567061520825527e-01
3.779136415743217237e-01
3.821169277799006392e-01
3.790599923576614683e-01
3.733282384409629118e-01
3.824990447076805355e-01
3.702713030187237409e-01
3.775315246465418273e-01
3.744745892243026564e-01
3.744745892243026564e-01
3.683607183798242035e-01
3.744745892243026564e-01
3.698891860909438445e-01
3.687428353076040999e-01
3.794421092854413646e-01
3.779136415743217237e-01
3.733282384409629118e-01
3.702713030187237409e-01
3.748567061520825527e-01
3.790599923576614683e-01
3.763851738632021382e-01
3.779136415743217237e-01
3.733282384409629118e-01
3.790599923576614683e-01
3.717997707298433263e-01
3.653037829575850326e-01
3.626289644631257025e-01
3.840275124188001765e-01
3.717997707298433263e-01
3.779136415743217237e-01
3.733282384409629118e-01
3.714176538020634299e-01
3.687428353076040999e-01
3.717997707298433263e-01
3.717997707298433263e-01
3.622468475353458062e-01
3.702713030187237409e-01
3.733282384409629118e-01
3.748567061520825527e-01
3.733282384409629118e-01
3.637753152464653916e-01
3.748567061520825527e-01
3.611004967520061171e-01
3.763851738632021382e-01
3.733282384409629118e-01
3.698891860909438445e-01
3.748567061520825527e-01
3.698891860909438445e-01
3.809705769965609501e-01
3.687428353076040999e-01
3.748567061520825527e-01
3.641574321742453435e-01
3.695070691631639481e-01
3.748567061520825527e-01
3.729461215131830154e-01
3.675964845242644108e-01
3.763851738632021382e-01
3.698891860909438445e-01
3.836453954910202246e-01
3.622468475353458062e-01
3.672143675964845144e-01
3.698891860909438445e-01
3.675964845242644108e-01
3.794421092854413646e-01
3.622468475353458062e-01
3.733282384409629118e-01
3.626289644631257025e-01
3.794421092854413646e-01
3.698891860909438445e-01
3.717997707298433263e-01
3.637753152464653916e-01
3.794421092854413646e-01
3.714176538020634299e-01
3.717997707298433263e-01
3.656858998853649290e-01
3.790599923576614683e-01
3.580435613297668906e-01
3.626289644631257025e-01
3.702713030187237409e-01
3.668322506687046181e-01
3.687428353076040999e-01
3.687428353076040999e-01
3.794421092854413646e-01
3.611004967520061171e-01
3.717997707298433263e-01
3.733282384409629118e-01
3.687428353076040999e-01
3.714176538020634299e-01
3.717997707298433263e-01
3.672143675964845144e-01
3.656858998853649290e-01
3.744745892243026564e-01
3.867023309132594511e-01
3.744745892243026564e-01
3.717997707298433263e-01
3.824990447076805355e-01
3.763851738632021382e-01
3.779136415743217237e-01
3.717997707298433263e-01
3.698891860909438445e-01
3.698891860909438445e-01
3.775315246465418273e-01
3.779136415743217237e-01
3.748567061520825527e-01
3.737103553687428081e-01
3.775315246465418273e-01
3.595720290408865316e-01
3.702713030187237409e-01
3.653037829575850326e-01
3.729461215131830154e-01
3.591899121131066352e-01
3.790599923576614683e-01
3.790599923576614683e-01
3.805884600687810537e-01
3.717997707298433263e-01
3.733282384409629118e-01
3.595720290408865316e-01
3.748567061520825527e-01
3.760030569354222418e-01
3.763851738632021382e-01
3.672143675964845144e-01
3.790599923576614683e-01
3.717997707298433263e-01
3.668322506687046181e-01
3.702713030187237409e-01
3.717997707298433263e-01
3.687428353076040999e-01
3.637753152464653916e-01
3.591899121131066352e-01
3.672143675964845144e-01
3.733282384409629118e-01
3.580435613297668906e-01
3.702713030187237409e-01
3.733282384409629118e-01
3.611004967520061171e-01
3.779136415743217237e-01
3.641574321742453435e-01
3.702713030187237409e-01
3.794421092854413646e-01
3.683607183798242035e-01
3.714176538020634299e-01
3.702713030187237409e-01
3.714176538020634299e-01
3.733282384409629118e-01
3.672143675964845144e-01
3.637753152464653916e-01
3.595720290408865316e-01
3.763851738632021382e-01
3.626289644631257025e-01
3.595720290408865316e-01
3.744745892243026564e-01
3.870844478410393474e-01
3.687428353076040999e-01
3.714176538020634299e-01
3.748567061520825527e-01
3.733282384409629118e-01
3.687428353076040999e-01
3.656858998853649290e-01
3.805884600687810537e-01
3.733282384409629118e-01
3.809705769965609501e-01
3.702713030187237409e-01
3.809705769965609501e-01
3.698891860909438445e-01
3.760030569354222418e-01
3.702713030187237409e-01
3.549866259075277197e-01
3.672143675964845144e-01
3.672143675964845144e-01
3.824990447076805355e-01
3.698891860909438445e-01
3.717997707298433263e-01
