2.311807413068398820e-01
2.311807413068398820e-01
2.311807413068398820e-01
2.162781811234237572e-01
2.162781811234237572e-01
2.132212457011845586e-01
2.132212457011845586e-01
2.132212457011845586e-01
2.376767290790982035e-01
2.376767290790982035e-01
2.369124952235384107e-01
2.369124952235384107e-01
2.369124952235384107e-01
2.162781811234237572e-01
2.162781811234237572e-01
2.082537256400458503e-01
2.082537256400458503e-01
2.082537256400458503e-01
2.277416889568207869e-01
2.277416889568207869e-01
2.327092090179594952e-01
2.327092090179594952e-01
2.327092090179594952e-01
2.094000764233855671e-01
2.094000764233855671e-01
2.170424149789835777e-01
2.170424149789835777e-01
2.170424149789835777e-01
2.109285441345051526e-01
2.109285441345051526e-01
2.281238058846006833e-01
2.281238058846006833e-01
2.281238058846006833e-01
2.273595720290408906e-01
2.273595720290408906e-01
2.197172334734428800e-01
2.197172334734428800e-01
2.197172334734428800e-01
2.032862055789071420e-01
2.032862055789071420e-01
2.032862055789071420e-01
2.032862055789071420e-01
2.032862055789071420e-01
2.250668704623614846e-01
2.250668704623614846e-01
2.258311043179212774e-01
2.258311043179212774e-01
2.258311043179212774e-01
2.071073748567061612e-01
2.071073748567061612e-01
2.040504394344669348e-01
2.040504394344669348e-01
2.040504394344669348e-01
2.097821933511654635e-01
2.097821933511654635e-01
1.960259839510890278e-01
1.960259839510890278e-01
1.960259839510890278e-01
2.067252579289262648e-01
2.067252579289262648e-01
1.987008024455483302e-01
1.987008024455483302e-01
1.987008024455483302e-01
2.074894917844860576e-01
2.074894917844860576e-01
2.128391287734046622e-01
2.128391287734046622e-01
2.128391287734046622e-01
2.113106610622850490e-01
2.113106610622850490e-01
1.922048146732900364e-01
1.922048146732900364e-01
1.922048146732900364e-01
2.143675964845242754e-01
2.143675964845242754e-01
2.174245319067634741e-01
2.174245319067634741e-01
2.174245319067634741e-01
2.139854795567443513e-01
2.139854795567443513e-01
2.086358425678257467e-01
2.086358425678257467e-01
2.086358425678257467e-01
2.055789071455865480e-01
2.055789071455865480e-01
2.067252579289262648e-01
2.067252579289262648e-01
2.067252579289262648e-01
1.876194115399312246e-01
1.876194115399312246e-01
1.906763469621704232e-01
1.906763469621704232e-01
1.906763469621704232e-01
1.860909438288116113e-01
1.860909438288116113e-01
2.078716087122659539e-01
2.078716087122659539e-01
2.078716087122659539e-01
2.105464272067252562e-01
2.105464272067252562e-01
1.837982422621322054e-01
1.837982422621322054e-01
1.837982422621322054e-01
1.929690485288498292e-01
1.929690485288498292e-01
1.841803591899121018e-01
1.841803591899121018e-01
1.841803591899121018e-01
1.960259839510890278e-01
1.960259839510890278e-01
2.094000764233855671e-01
2.094000764233855671e-01
2.094000764233855671e-01
1.826518914787925163e-01
1.826518914787925163e-01
1.845624761176920259e-01
1.845624761176920259e-01
1.845624761176920259e-01
2.021398547955674529e-01
2.021398547955674529e-01
1.872372946121513282e-01
1.872372946121513282e-01
1.872372946121513282e-01
2.002292701566679434e-01
2.002292701566679434e-01
1.818876576232326958e-01
1.818876576232326958e-01
1.818876576232326958e-01
1.857088269010317150e-01
1.857088269010317150e-01
1.822697745510126199e-01
1.822697745510126199e-01
1.822697745510126199e-01
1.902942300343905269e-01
1.902942300343905269e-01
1.757737867787542985e-01
1.757737867787542985e-01
1.757737867787542985e-01
1.788307222009934971e-01
1.788307222009934971e-01
1.788307222009934971e-01
1.788307222009934971e-01
1.788307222009934971e-01
1.761559037065341948e-01
1.761559037065341948e-01
1.948796331677493388e-01
1.948796331677493388e-01
1.948796331677493388e-01
1.738632021398547889e-01
1.738632021398547889e-01
1.987008024455483302e-01
1.987008024455483302e-01
1.987008024455483302e-01
1.983186855177684338e-01
1.983186855177684338e-01
1.757737867787542985e-01
1.757737867787542985e-01
1.757737867787542985e-01
1.799770729843332140e-01
1.799770729843332140e-01
1.990829193733282265e-01
1.990829193733282265e-01
1.990829193733282265e-01
1.799770729843332140e-01
1.799770729843332140e-01
1.734810852120748925e-01
1.734810852120748925e-01
1.734810852120748925e-01
1.910584638899503196e-01
1.910584638899503196e-01
1.853267099732518186e-01
1.853267099732518186e-01
1.853267099732518186e-01
1.815055406954527994e-01
1.815055406954527994e-01
1.711883836453954866e-01
1.711883836453954866e-01
1.711883836453954866e-01
1.853267099732518186e-01
1.853267099732518186e-01
1.773022544898739117e-01
1.773022544898739117e-01
1.773022544898739117e-01
1.941153993121895183e-01
1.941153993121895183e-01
1.975544516622086411e-01
1.975544516622086411e-01
1.975544516622086411e-01
1.719526175009552793e-01
1.719526175009552793e-01
1.811234237676729031e-01
1.811234237676729031e-01
1.811234237676729031e-01
1.769201375620939876e-01
1.769201375620939876e-01
1.952617500955292351e-01
1.952617500955292351e-01
1.952617500955292351e-01
1.765380206343140912e-01
1.765380206343140912e-01
1.899121131066106305e-01
1.899121131066106305e-01
1.757737867787542985e-01
1.757737867787542985e-01
1.757737867787542985e-01
1.891478792510508100e-01
1.891478792510508100e-01
1.765380206343140912e-01
1.765380206343140912e-01
1.765380206343140912e-01
1.883836453954910173e-01
1.883836453954910173e-01
1.727168513565150998e-01
1.727168513565150998e-01
1.727168513565150998e-01
1.742453190676346853e-01
1.742453190676346853e-01
1.975544516622086411e-01
1.975544516622086411e-01
1.975544516622086411e-01
1.765380206343140912e-01
1.765380206343140912e-01
1.880015284677111209e-01
1.880015284677111209e-01
1.880015284677111209e-01
1.822697745510126199e-01
1.822697745510126199e-01
2.002292701566679434e-01
2.002292701566679434e-01
2.002292701566679434e-01
1.872372946121513282e-01
1.872372946121513282e-01
1.815055406954527994e-01
1.815055406954527994e-01
1.815055406954527994e-01
1.899121131066106305e-01
1.899121131066106305e-01
1.891478792510508100e-01
1.891478792510508100e-01
1.891478792510508100e-01
1.883836453954910173e-01
1.883836453954910173e-01
1.883836453954910173e-01
1.883836453954910173e-01
1.883836453954910173e-01
1.944975162399694424e-01
1.944975162399694424e-01
1.990829193733282265e-01
1.990829193733282265e-01
1.990829193733282265e-01
1.788307222009934971e-01
1.788307222009934971e-01
1.727168513565150998e-01
1.727168513565150998e-01
1.727168513565150998e-01
1.799770729843332140e-01
1.799770729843332140e-01
1.925869316010699328e-01
1.925869316010699328e-01
1.925869316010699328e-01
1.730989682842949962e-01
1.730989682842949962e-01
1.769201375620939876e-01
1.769201375620939876e-01
1.769201375620939876e-01
1.918226977455101123e-01
1.918226977455101123e-01
1.708062667176155902e-01
1.708062667176155902e-01
1.708062667176155902e-01
1.799770729843332140e-01
1.799770729843332140e-01
1.853267099732518186e-01
1.853267099732518186e-01
1.853267099732518186e-01
1.944975162399694424e-01
1.944975162399694424e-01
1.711883836453954866e-01
1.711883836453954866e-01
1.711883836453954866e-01
1.750095529231945057e-01
1.750095529231945057e-01
1.708062667176155902e-01
1.708062667176155902e-01
1.708062667176155902e-01
1.925869316010699328e-01
1.925869316010699328e-01
1.704241497898356938e-01
1.704241497898356938e-01
1.704241497898356938e-01
1.723347344287352034e-01
1.723347344287352034e-01
1.780664883454337044e-01
1.780664883454337044e-01
1.780664883454337044e-01
1.765380206343140912e-01
1.765380206343140912e-01
1.895299961788307341e-01
1.895299961788307341e-01
1.895299961788307341e-01
1.876194115399312246e-01
1.876194115399312246e-01
1.723347344287352034e-01
1.723347344287352034e-01
1.723347344287352034e-01
1.750095529231945057e-01
1.750095529231945057e-01
1.650745128009170892e-01
1.650745128009170892e-01
1.650745128009170892e-01
1.711883836453954866e-01
1.711883836453954866e-01
1.822697745510126199e-01
1.822697745510126199e-01
1.822697745510126199e-01
1.902942300343905269e-01
1.902942300343905269e-01
1.799770729843332140e-01
1.799770729843332140e-01
1.799770729843332140e-01
1.876194115399312246e-01
1.876194115399312246e-01
1.723347344287352034e-01
1.723347344287352034e-01
1.723347344287352034e-01
1.815055406954527994e-01
1.815055406954527994e-01
1.681314482231562879e-01
1.681314482231562879e-01
1.681314482231562879e-01
1.646923958731371929e-01
1.646923958731371929e-01
1.761559037065341948e-01
1.761559037065341948e-01
1.761559037065341948e-01
1.738632021398547889e-01
1.738632021398547889e-01
1.620175773786778628e-01
1.620175773786778628e-01
1.620175773786778628e-01
1.815055406954527994e-01
1.815055406954527994e-01
1.681314482231562879e-01
1.681314482231562879e-01
1.681314482231562879e-01
1.887657623232709136e-01
1.887657623232709136e-01
1.650745128009170892e-01
1.650745128009170892e-01
1.650745128009170892e-01
1.715705005731753829e-01
1.715705005731753829e-01
1.750095529231945057e-01
1.750095529231945057e-01
1.750095529231945057e-01
1.681314482231562879e-01
1.681314482231562879e-01
1.990829193733282265e-01
1.990829193733282265e-01
1.990829193733282265e-01
1.757737867787542985e-01
1.757737867787542985e-01
1.990829193733282265e-01
1.990829193733282265e-01
1.990829193733282265e-01
2.059610240733664444e-01
2.059610240733664444e-01
2.032862055789071420e-01
2.032862055789071420e-01
2.032862055789071420e-01
2.067252579289262648e-01
2.067252579289262648e-01
2.120748949178448695e-01
2.120748949178448695e-01
2.120748949178448695e-01
2.166602980512036813e-01
2.166602980512036813e-01
2.101643102789453599e-01
2.101643102789453599e-01
2.101643102789453599e-01
2.342376767290791084e-01
2.342376767290791084e-01
2.311807413068398820e-01
2.311807413068398820e-01
2.311807413068398820e-01
2.361482613679785902e-01
2.361482613679785902e-01
2.212457011845624655e-01
2.212457011845624655e-01
2.212457011845624655e-01
2.506687046236148464e-01
2.506687046236148464e-01
2.323270920901795988e-01
2.323270920901795988e-01
2.323270920901795988e-01
2.407336645013374021e-01
2.407336645013374021e-01
2.468475353458158272e-01
2.468475353458158272e-01
2.468475353458158272e-01
2.659533817348108675e-01
2.659533817348108675e-01
2.606037447458922629e-01
2.606037447458922629e-01
2.525792892625143282e-01
2.525792892625143282e-01
2.525792892625143282e-01
2.651891478792510748e-01
2.651891478792510748e-01
2.850592281238059078e-01
2.850592281238059078e-01
2.850592281238059078e-01
2.663354986625907639e-01
2.663354986625907639e-01
2.663354986625907639e-01
2.663354986625907639e-01
2.663354986625907639e-01
2.942300343905234761e-01
2.942300343905234761e-01
2.927015666794038906e-01
2.927015666794038906e-01
2.927015666794038906e-01
2.938479174627435797e-01
2.938479174627435797e-01
2.831486434849063705e-01
2.831486434849063705e-01
2.831486434849063705e-01
2.816201757737867850e-01
2.816201757737867850e-01
3.041650745128008926e-01
3.041650745128008926e-01
3.041650745128008926e-01
3.045471914405808445e-01
3.045471914405808445e-01
2.923194497516239942e-01
2.923194497516239942e-01
2.923194497516239942e-01
2.877340466182651824e-01
2.877340466182651824e-01
3.098968284294994491e-01
3.098968284294994491e-01
3.098968284294994491e-01
2.892625143293847678e-01
2.892625143293847678e-01
3.083683607183798081e-01
3.083683607183798081e-01
3.083683607183798081e-01
3.098968284294994491e-01
3.098968284294994491e-01
2.904088651127245124e-01
2.904088651127245124e-01
2.904088651127245124e-01
3.110431792128391382e-01
3.110431792128391382e-01
2.953763851738632207e-01
2.953763851738632207e-01
2.953763851738632207e-01
2.927015666794038906e-01
2.927015666794038906e-01
3.179212839128773282e-01
3.179212839128773282e-01
3.179212839128773282e-01
3.095147115017195527e-01
3.095147115017195527e-01
3.076041268628200154e-01
3.076041268628200154e-01
3.076041268628200154e-01
3.060756591517004299e-01
3.060756591517004299e-01
2.984333205961023916e-01
2.984333205961023916e-01
2.984333205961023916e-01
3.175391669850974319e-01
3.175391669850974319e-01
2.934658005349636833e-01
2.934658005349636833e-01
2.934658005349636833e-01
3.060756591517004299e-01
3.060756591517004299e-01
3.183034008406572246e-01
3.183034008406572246e-01
3.183034008406572246e-01
2.938479174627435797e-01
2.938479174627435797e-01
2.969048528849828061e-01
2.969048528849828061e-01
2.969048528849828061e-01
2.949942682460833243e-01
2.949942682460833243e-01
2.980512036683224952e-01
2.980512036683224952e-01
2.980512036683224952e-01
3.171570500573175355e-01
3.171570500573175355e-01
2.969048528849828061e-01
2.969048528849828061e-01
2.969048528849828061e-01
3.007260221627818253e-01
3.007260221627818253e-01
2.976690867405425989e-01
2.976690867405425989e-01
2.976690867405425989e-01
2.938479174627435797e-01
2.938479174627435797e-01
3.079862437905999117e-01
3.079862437905999117e-01
3.079862437905999117e-01
2.911730989682843052e-01
2.911730989682843052e-01
2.980512036683224952e-01
2.980512036683224952e-01
2.980512036683224952e-01
2.927015666794038906e-01
2.927015666794038906e-01
3.194497516239969692e-01
3.194497516239969692e-01
3.194497516239969692e-01
3.163928162017577428e-01
3.163928162017577428e-01
3.156285823461979501e-01
3.156285823461979501e-01
3.156285823461979501e-01
2.976690867405425989e-01
2.976690867405425989e-01
3.022544898739014108e-01
3.022544898739014108e-01
3.022544898739014108e-01
2.942300343905234761e-01
2.942300343905234761e-01
3.102789453572793454e-01
3.102789453572793454e-01
3.102789453572793454e-01
2.976690867405425989e-01
2.976690867405425989e-01
3.076041268628200154e-01
3.076041268628200154e-01
3.076041268628200154e-01
3.072220099350401190e-01
3.072220099350401190e-01
2.946121513183034279e-01
2.946121513183034279e-01
2.946121513183034279e-01
3.022544898739014108e-01
3.022544898739014108e-01
2.923194497516239942e-01
2.923194497516239942e-01
2.923194497516239942e-01
2.865876958349254933e-01
2.865876958349254933e-01
3.026366068016813071e-01
3.026366068016813071e-01
3.026366068016813071e-01
2.816201757737867850e-01
2.816201757737867850e-01
2.877340466182651824e-01
2.877340466182651824e-01
2.877340466182651824e-01
2.846771111960260114e-01
2.846771111960260114e-01
3.087504776461597045e-01
3.087504776461597045e-01
3.087504776461597045e-01
2.835307604126862668e-01
2.835307604126862668e-01
3.056935422239205336e-01
3.056935422239205336e-01
3.056935422239205336e-01
3.034008406572410999e-01
3.034008406572410999e-01
2.938479174627435797e-01
2.938479174627435797e-01
2.938479174627435797e-01
2.995796713794421362e-01
2.995796713794421362e-01
2.789453572793274549e-01
2.789453572793274549e-01
2.789453572793274549e-01
2.976690867405425989e-01
2.976690867405425989e-01
2.781811234237676622e-01
2.781811234237676622e-01
2.781811234237676622e-01
2.923194497516239942e-01
2.923194497516239942e-01
2.755063049293083877e-01
2.755063049293083877e-01
2.755063049293083877e-01
2.904088651127245124e-01
2.904088651127245124e-01
2.678639663737103493e-01
2.678639663737103493e-01
2.678639663737103493e-01
2.797095911348873032e-01
2.797095911348873032e-01
2.632785632403515375e-01
2.632785632403515375e-01
2.632785632403515375e-01
2.609858616736721593e-01
2.609858616736721593e-01
2.678639663737103493e-01
2.678639663737103493e-01
2.678639663737103493e-01
2.751241880015284913e-01
2.751241880015284913e-01
2.693924340848299348e-01
2.693924340848299348e-01
2.651891478792510748e-01
2.651891478792510748e-01
2.651891478792510748e-01
2.621322124570118484e-01
2.621322124570118484e-01
2.613679786014520556e-01
2.613679786014520556e-01
2.613679786014520556e-01
2.590752770347726219e-01
2.590752770347726219e-01
2.686282002292701421e-01
2.686282002292701421e-01
2.686282002292701421e-01
2.644249140236912266e-01
2.644249140236912266e-01
2.495223538402751295e-01
2.495223538402751295e-01
2.495223538402751295e-01
2.460833014902560067e-01
2.460833014902560067e-01
2.430263660680168081e-01
2.430263660680168081e-01
2.430263660680168081e-01
2.564004585403133474e-01
2.564004585403133474e-01
2.583110431792128292e-01
2.583110431792128292e-01
2.583110431792128292e-01
2.399694306457776094e-01
2.399694306457776094e-01
2.369124952235384107e-01
2.369124952235384107e-01
2.369124952235384107e-01
2.369124952235384107e-01
2.369124952235384107e-01
2.353840275124187975e-01
2.353840275124187975e-01
2.353840275124187975e-01
2.457011845624761104e-01
2.457011845624761104e-01
2.411157814291172985e-01
2.411157814291172985e-01
2.411157814291172985e-01
2.311807413068398820e-01
2.311807413068398820e-01
2.311807413068398820e-01
2.311807413068398820e-01
2.311807413068398820e-01
2.491402369124952332e-01
2.491402369124952332e-01
2.472296522735957236e-01
2.472296522735957236e-01
2.472296522735957236e-01
2.300343905235001929e-01
2.300343905235001929e-01
2.392051967902178167e-01
2.392051967902178167e-01
2.392051967902178167e-01
2.288880397401604760e-01
2.288880397401604760e-01
2.399694306457776094e-01
2.399694306457776094e-01
2.399694306457776094e-01
2.334734428735192879e-01
2.334734428735192879e-01
2.388230798624378926e-01
2.388230798624378926e-01
2.388230798624378926e-01
2.235384027512418714e-01
2.235384027512418714e-01
2.296522735957202965e-01
2.296522735957202965e-01
2.296522735957202965e-01
2.220099350401222860e-01
2.220099350401222860e-01
2.208635842567825691e-01
2.208635842567825691e-01
2.208635842567825691e-01
2.273595720290408906e-01
2.273595720290408906e-01
2.441727168513565249e-01
2.441727168513565249e-01
2.441727168513565249e-01
2.285059228123805797e-01
2.285059228123805797e-01
2.250668704623614846e-01
2.250668704623614846e-01
2.250668704623614846e-01
2.445548337791364213e-01
2.445548337791364213e-01
2.434084829957967044e-01
2.434084829957967044e-01
2.434084829957967044e-01
2.407336645013374021e-01
2.407336645013374021e-01
2.281238058846006833e-01
2.281238058846006833e-01
2.281238058846006833e-01
2.285059228123805797e-01
2.285059228123805797e-01
2.208635842567825691e-01
2.208635842567825691e-01
2.208635842567825691e-01
2.265953381734810979e-01
2.265953381734810979e-01
2.273595720290408906e-01
2.273595720290408906e-01
2.273595720290408906e-01
2.357661444401986939e-01
2.357661444401986939e-01
2.277416889568207869e-01
2.277416889568207869e-01
2.277416889568207869e-01
2.338555598012991843e-01
2.338555598012991843e-01
2.158960641956438609e-01
2.158960641956438609e-01
2.158960641956438609e-01
2.109285441345051526e-01
2.109285441345051526e-01
2.124570118456247658e-01
2.124570118456247658e-01
2.124570118456247658e-01
2.136033626289644549e-01
2.136033626289644549e-01
2.193351165456629837e-01
2.193351165456629837e-01
2.193351165456629837e-01
2.136033626289644549e-01
2.136033626289644549e-01
2.193351165456629837e-01
2.193351165456629837e-01
2.193351165456629837e-01
2.365303782957585144e-01
2.365303782957585144e-01
2.327092090179594952e-01
2.327092090179594952e-01
2.327092090179594952e-01
2.269774551012609942e-01
2.269774551012609942e-01
2.269774551012609942e-01
2.269774551012609942e-01
2.269774551012609942e-01
2.143675964845242754e-01
2.143675964845242754e-01
2.277416889568207869e-01
2.277416889568207869e-01
2.277416889568207869e-01
2.285059228123805797e-01
2.285059228123805797e-01
2.311807413068398820e-01
2.311807413068398820e-01
2.311807413068398820e-01
2.304165074512800893e-01
2.304165074512800893e-01
2.327092090179594952e-01
2.327092090179594952e-01
2.327092090179594952e-01
2.055789071455865480e-01
2.055789071455865480e-01
2.059610240733664444e-01
2.059610240733664444e-01
2.059610240733664444e-01
2.296522735957202965e-01
2.296522735957202965e-01
2.204814673290026728e-01
2.204814673290026728e-01
2.204814673290026728e-01
2.113106610622850490e-01
2.113106610622850490e-01
2.200993504012227764e-01
2.200993504012227764e-01
2.200993504012227764e-01
2.262132212457011737e-01
2.262132212457011737e-01
2.162781811234237572e-01
2.162781811234237572e-01
2.162781811234237572e-01
2.120748949178448695e-01
2.120748949178448695e-01
2.120748949178448695e-01
2.120748949178448695e-01
2.120748949178448695e-01
2.071073748567061612e-01
2.071073748567061612e-01
1.994650363011081506e-01
1.994650363011081506e-01
1.994650363011081506e-01
2.097821933511654635e-01
2.097821933511654635e-01
2.063431410011463407e-01
2.063431410011463407e-01
2.063431410011463407e-01
2.032862055789071420e-01
2.032862055789071420e-01
2.101643102789453599e-01
2.101643102789453599e-01
2.101643102789453599e-01
2.105464272067252562e-01
2.105464272067252562e-01
1.983186855177684338e-01
1.983186855177684338e-01
1.983186855177684338e-01
2.143675964845242754e-01
2.143675964845242754e-01
2.170424149789835777e-01
2.170424149789835777e-01
1.971723347344287447e-01
1.971723347344287447e-01
1.971723347344287447e-01
2.044325563622468589e-01
2.044325563622468589e-01
1.941153993121895183e-01
1.941153993121895183e-01
1.941153993121895183e-01
2.220099350401222860e-01
2.220099350401222860e-01
1.990829193733282265e-01
1.990829193733282265e-01
1.990829193733282265e-01
2.002292701566679434e-01
2.002292701566679434e-01
2.002292701566679434e-01
2.002292701566679434e-01
2.002292701566679434e-01
1.952617500955292351e-01
1.952617500955292351e-01
1.899121131066106305e-01
1.899121131066106305e-01
1.899121131066106305e-01
2.147497134123041718e-01
2.147497134123041718e-01
1.910584638899503196e-01
1.910584638899503196e-01
1.910584638899503196e-01
1.918226977455101123e-01
1.918226977455101123e-01
2.132212457011845586e-01
2.132212457011845586e-01
2.132212457011845586e-01
1.948796331677493388e-01
1.948796331677493388e-01
2.101643102789453599e-01
2.101643102789453599e-01
2.101643102789453599e-01
2.006113870844478397e-01
2.006113870844478397e-01
1.818876576232326958e-01
1.818876576232326958e-01
1.818876576232326958e-01
2.051967902178066516e-01
2.051967902178066516e-01
1.960259839510890278e-01
1.960259839510890278e-01
1.960259839510890278e-01
1.803591899121131104e-01
1.803591899121131104e-01
1.883836453954910173e-01
1.883836453954910173e-01
1.883836453954910173e-01
2.006113870844478397e-01
2.006113870844478397e-01
1.937332823844096219e-01
1.937332823844096219e-01
1.937332823844096219e-01
1.799770729843332140e-01
1.799770729843332140e-01
2.055789071455865480e-01
2.055789071455865480e-01
2.055789071455865480e-01
1.990829193733282265e-01
1.990829193733282265e-01
2.040504394344669348e-01
2.040504394344669348e-01
2.040504394344669348e-01
1.834161253343523090e-01
1.834161253343523090e-01
1.880015284677111209e-01
1.880015284677111209e-01
1.880015284677111209e-01
2.059610240733664444e-01
2.059610240733664444e-01
1.864730607565915077e-01
1.864730607565915077e-01
1.864730607565915077e-01
1.956438670233091315e-01
1.956438670233091315e-01
1.815055406954527994e-01
1.815055406954527994e-01
1.815055406954527994e-01
1.964081008788689242e-01
1.964081008788689242e-01
2.021398547955674529e-01
2.021398547955674529e-01
2.021398547955674529e-01
2.032862055789071420e-01
2.032862055789071420e-01
1.788307222009934971e-01
1.788307222009934971e-01
1.788307222009934971e-01
2.002292701566679434e-01
2.002292701566679434e-01
2.013756209400076325e-01
2.013756209400076325e-01
2.013756209400076325e-01
1.792128391287733935e-01
1.792128391287733935e-01
1.857088269010317150e-01
1.857088269010317150e-01
1.857088269010317150e-01
1.876194115399312246e-01
1.876194115399312246e-01
2.036683225066870384e-01
2.036683225066870384e-01
2.036683225066870384e-01
2.009935040122277361e-01
2.009935040122277361e-01
1.925869316010699328e-01
1.925869316010699328e-01
1.925869316010699328e-01
1.994650363011081506e-01
1.994650363011081506e-01
1.998471532288880470e-01
1.998471532288880470e-01
1.998471532288880470e-01
1.807413068398930067e-01
1.807413068398930067e-01
1.807413068398930067e-01
1.807413068398930067e-01
1.807413068398930067e-01
1.841803591899121018e-01
1.841803591899121018e-01
2.006113870844478397e-01
2.006113870844478397e-01
2.006113870844478397e-01
1.990829193733282265e-01
1.990829193733282265e-01
1.750095529231945057e-01
1.750095529231945057e-01
1.750095529231945057e-01
1.761559037065341948e-01
1.761559037065341948e-01
1.876194115399312246e-01
1.876194115399312246e-01
1.876194115399312246e-01
1.853267099732518186e-01
1.853267099732518186e-01
1.757737867787542985e-01
1.757737867787542985e-01
1.757737867787542985e-01
1.952617500955292351e-01
1.952617500955292351e-01
1.933511654566297255e-01
1.933511654566297255e-01
1.933511654566297255e-01
1.807413068398930067e-01
1.807413068398930067e-01
1.761559037065341948e-01
1.761559037065341948e-01
1.761559037065341948e-01
1.971723347344287447e-01
1.971723347344287447e-01
1.918226977455101123e-01
1.918226977455101123e-01
1.918226977455101123e-01
1.757737867787542985e-01
1.757737867787542985e-01
1.780664883454337044e-01
1.780664883454337044e-01
1.780664883454337044e-01
1.987008024455483302e-01
1.987008024455483302e-01
1.937332823844096219e-01
1.937332823844096219e-01
1.937332823844096219e-01
1.922048146732900364e-01
1.922048146732900364e-01
1.738632021398547889e-01
1.738632021398547889e-01
1.738632021398547889e-01
1.948796331677493388e-01
1.948796331677493388e-01
1.822697745510126199e-01
1.822697745510126199e-01
1.822697745510126199e-01
1.746274359954146094e-01
1.746274359954146094e-01
1.788307222009934971e-01
1.788307222009934971e-01
1.788307222009934971e-01
1.761559037065341948e-01
1.761559037065341948e-01
1.872372946121513282e-01
1.872372946121513282e-01
1.872372946121513282e-01
1.761559037065341948e-01
1.761559037065341948e-01
1.979365685899885374e-01
1.979365685899885374e-01
1.979365685899885374e-01
1.860909438288116113e-01
1.860909438288116113e-01
1.887657623232709136e-01
1.887657623232709136e-01
1.887657623232709136e-01
2.017577378677875566e-01
2.017577378677875566e-01
1.964081008788689242e-01
1.964081008788689242e-01
1.918226977455101123e-01
1.918226977455101123e-01
1.918226977455101123e-01
1.895299961788307341e-01
1.895299961788307341e-01
1.983186855177684338e-01
1.983186855177684338e-01
1.983186855177684338e-01
1.860909438288116113e-01
1.860909438288116113e-01
1.956438670233091315e-01
1.956438670233091315e-01
1.956438670233091315e-01
1.769201375620939876e-01
1.769201375620939876e-01
1.967902178066488483e-01
1.967902178066488483e-01
1.967902178066488483e-01
1.826518914787925163e-01
1.826518914787925163e-01
2.006113870844478397e-01
2.006113870844478397e-01
2.006113870844478397e-01
1.719526175009552793e-01
1.719526175009552793e-01
1.990829193733282265e-01
1.990829193733282265e-01
1.990829193733282265e-01
1.883836453954910173e-01
1.883836453954910173e-01
1.971723347344287447e-01
1.971723347344287447e-01
1.971723347344287447e-01
1.952617500955292351e-01
1.952617500955292351e-01
1.948796331677493388e-01
1.948796331677493388e-01
1.948796331677493388e-01
1.738632021398547889e-01
1.738632021398547889e-01
1.944975162399694424e-01
1.944975162399694424e-01
1.944975162399694424e-01
2.009935040122277361e-01
2.009935040122277361e-01
1.841803591899121018e-01
1.841803591899121018e-01
1.841803591899121018e-01
1.795949560565533176e-01
1.795949560565533176e-01
1.948796331677493388e-01
1.948796331677493388e-01
1.948796331677493388e-01
1.780664883454337044e-01
1.780664883454337044e-01
1.983186855177684338e-01
1.983186855177684338e-01
1.983186855177684338e-01
1.960259839510890278e-01
1.960259839510890278e-01
1.891478792510508100e-01
1.891478792510508100e-01
1.891478792510508100e-01
1.769201375620939876e-01
1.769201375620939876e-01
1.971723347344287447e-01
1.971723347344287447e-01
1.971723347344287447e-01
1.883836453954910173e-01
1.883836453954910173e-01
1.681314482231562879e-01
1.681314482231562879e-01
1.681314482231562879e-01
1.864730607565915077e-01
1.864730607565915077e-01
1.788307222009934971e-01
1.788307222009934971e-01
1.788307222009934971e-01
1.646923958731371929e-01
1.646923958731371929e-01
1.669850974398165711e-01
1.669850974398165711e-01
1.669850974398165711e-01
1.673672143675964952e-01
1.673672143675964952e-01
1.826518914787925163e-01
1.826518914787925163e-01
1.826518914787925163e-01
1.857088269010317150e-01
1.857088269010317150e-01
1.700420328620557975e-01
1.700420328620557975e-01
1.700420328620557975e-01
1.868551776843714041e-01
1.868551776843714041e-01
1.761559037065341948e-01
1.761559037065341948e-01
1.761559037065341948e-01
1.910584638899503196e-01
1.910584638899503196e-01
1.845624761176920259e-01
1.845624761176920259e-01
1.845624761176920259e-01
1.929690485288498292e-01
1.929690485288498292e-01
1.922048146732900364e-01
1.922048146732900364e-01
1.922048146732900364e-01
1.868551776843714041e-01
1.868551776843714041e-01
1.998471532288880470e-01
1.998471532288880470e-01
1.998471532288880470e-01
1.753916698509744021e-01
1.753916698509744021e-01
1.960259839510890278e-01
1.960259839510890278e-01
1.960259839510890278e-01
2.086358425678257467e-01
2.086358425678257467e-01
1.922048146732900364e-01
1.922048146732900364e-01
1.922048146732900364e-01
2.139854795567443513e-01
2.139854795567443513e-01
1.967902178066488483e-01
1.967902178066488483e-01
1.967902178066488483e-01
2.208635842567825691e-01
2.208635842567825691e-01
2.097821933511654635e-01
2.097821933511654635e-01
2.097821933511654635e-01
2.178066488345433704e-01
2.178066488345433704e-01
2.288880397401604760e-01
2.288880397401604760e-01
2.288880397401604760e-01
2.158960641956438609e-01
2.158960641956438609e-01
2.483760030569354127e-01
2.483760030569354127e-01
2.483760030569354127e-01
2.277416889568207869e-01
2.277416889568207869e-01
2.506687046236148464e-01
2.506687046236148464e-01
2.506687046236148464e-01
2.483760030569354127e-01
2.483760030569354127e-01
2.449369507069163177e-01
2.449369507069163177e-01
2.449369507069163177e-01
2.460833014902560067e-01
2.460833014902560067e-01
2.716851356515093685e-01
2.716851356515093685e-01
2.716851356515093685e-01
2.770347726404279731e-01
2.770347726404279731e-01
2.674818494459304530e-01
2.674818494459304530e-01
2.674818494459304530e-01
2.892625143293847678e-01
2.892625143293847678e-01
2.858234619793657005e-01
2.858234619793657005e-01
2.858234619793657005e-01
2.988154375238822880e-01
2.988154375238822880e-01
2.980512036683224952e-01
2.980512036683224952e-01
2.980512036683224952e-01
2.751241880015284913e-01
2.751241880015284913e-01
2.862055789071455969e-01
2.862055789071455969e-01
2.862055789071455969e-01
3.091325945739396008e-01
3.091325945739396008e-01
2.930836836071837870e-01
2.930836836071837870e-01
2.930836836071837870e-01
3.125716469239587236e-01
3.125716469239587236e-01
3.064577760794803263e-01
3.064577760794803263e-01
3.064577760794803263e-01
2.995796713794421362e-01
2.995796713794421362e-01
3.079862437905999117e-01
3.079862437905999117e-01
3.079862437905999117e-01
2.976690867405425989e-01
2.976690867405425989e-01
3.163928162017577428e-01
3.163928162017577428e-01
3.163928162017577428e-01
3.049293083683607408e-01
3.049293083683607408e-01
3.110431792128391382e-01
3.110431792128391382e-01
3.110431792128391382e-01
2.984333205961023916e-01
2.984333205961023916e-01
3.068398930072602226e-01
3.068398930072602226e-01
3.064577760794803263e-01
3.064577760794803263e-01
3.064577760794803263e-01
2.980512036683224952e-01
2.980512036683224952e-01
3.244172716851356775e-01
3.244172716851356775e-01
3.244172716851356775e-01
3.152464654184180537e-01
3.152464654184180537e-01
3.156285823461979501e-01
3.156285823461979501e-01
3.156285823461979501e-01
3.190676346962170173e-01
3.190676346962170173e-01
3.121895299961788273e-01
3.121895299961788273e-01
3.121895299961788273e-01
3.263278563240351593e-01
3.263278563240351593e-01
3.045471914405808445e-01
3.045471914405808445e-01
3.045471914405808445e-01
3.079862437905999117e-01
3.079862437905999117e-01
3.179212839128773282e-01
3.179212839128773282e-01
3.179212839128773282e-01
3.091325945739396008e-01
3.091325945739396008e-01
3.056935422239205336e-01
3.056935422239205336e-01
3.056935422239205336e-01
3.102789453572793454e-01
3.102789453572793454e-01
2.999617883072220326e-01
2.999617883072220326e-01
2.999617883072220326e-01
3.270920901795949520e-01
3.270920901795949520e-01
3.156285823461979501e-01
3.156285823461979501e-01
3.156285823461979501e-01
3.171570500573175355e-01
3.171570500573175355e-01
3.171570500573175355e-01
3.171570500573175355e-01
3.171570500573175355e-01
3.144822315628582610e-01
3.144822315628582610e-01
3.194497516239969692e-01
3.194497516239969692e-01
3.194497516239969692e-01
3.114252961406190345e-01
3.114252961406190345e-01
3.041650745128008926e-01
3.041650745128008926e-01
3.041650745128008926e-01
3.133358807795185164e-01
3.133358807795185164e-01
2.965227359572029098e-01
2.965227359572029098e-01
2.965227359572029098e-01
2.946121513183034279e-01
2.946121513183034279e-01
3.083683607183798081e-01
3.083683607183798081e-01
3.083683607183798081e-01
3.049293083683607408e-01
3.049293083683607408e-01
3.209782193351165547e-01
3.209782193351165547e-01
3.209782193351165547e-01
3.014902560183416180e-01
3.014902560183416180e-01
2.904088651127245124e-01
2.904088651127245124e-01
2.904088651127245124e-01
3.087504776461597045e-01
3.087504776461597045e-01
3.087504776461597045e-01
3.087504776461597045e-01
3.087504776461597045e-01
3.179212839128773282e-01
3.179212839128773282e-01
2.923194497516239942e-01
2.923194497516239942e-01
2.923194497516239942e-01
3.152464654184180537e-01
3.152464654184180537e-01
3.141001146350783091e-01
3.141001146350783091e-01
3.141001146350783091e-01
2.919373328238440979e-01
2.919373328238440979e-01
3.072220099350401190e-01
3.072220099350401190e-01
3.072220099350401190e-01
3.018723729461215144e-01
3.018723729461215144e-01
2.919373328238440979e-01
2.919373328238440979e-01
2.919373328238440979e-01
3.156285823461979501e-01
3.156285823461979501e-01
2.953763851738632207e-01
2.953763851738632207e-01
2.953763851738632207e-01
3.114252961406190345e-01
3.114252961406190345e-01
2.873519296904852860e-01
2.873519296904852860e-01
2.873519296904852860e-01
2.842949942682460596e-01
2.842949942682460596e-01
2.972869698127627025e-01
2.972869698127627025e-01
2.972869698127627025e-01
2.999617883072220326e-01
2.999617883072220326e-01
3.030187237294612035e-01
3.030187237294612035e-01
3.030187237294612035e-01
2.842949942682460596e-01
2.842949942682460596e-01
3.003439052350019289e-01
3.003439052350019289e-01
3.003439052350019289e-01
2.766526557126480768e-01
2.766526557126480768e-01
2.884982804738249751e-01
2.884982804738249751e-01
2.884982804738249751e-01
2.919373328238440979e-01
2.919373328238440979e-01
2.850592281238059078e-01
2.850592281238059078e-01
2.850592281238059078e-01
2.648070309514711229e-01
2.648070309514711229e-01
2.640427970959113302e-01
2.640427970959113302e-01
2.640427970959113302e-01
2.632785632403515375e-01
2.632785632403515375e-01
2.713030187237294721e-01
2.713030187237294721e-01
2.713030187237294721e-01
2.839128773404661632e-01
2.839128773404661632e-01
2.617500955292319520e-01
2.617500955292319520e-01
2.617500955292319520e-01
2.739778372181887467e-01
2.739778372181887467e-01
2.579289262514329328e-01
2.579289262514329328e-01
2.579289262514329328e-01
2.613679786014520556e-01
2.613679786014520556e-01
2.659533817348108675e-01
2.659533817348108675e-01
2.659533817348108675e-01
2.510508215513947428e-01
2.510508215513947428e-01
2.495223538402751295e-01
2.495223538402751295e-01
2.495223538402751295e-01
2.674818494459304530e-01
2.674818494459304530e-01
2.483760030569354127e-01
2.483760030569354127e-01
2.483760030569354127e-01
2.453190676346962140e-01
2.453190676346962140e-01
2.445548337791364213e-01
2.445548337791364213e-01
2.445548337791364213e-01
2.670997325181505566e-01
2.670997325181505566e-01
2.521971723347344319e-01
2.521971723347344319e-01
2.521971723347344319e-01
2.487581199847153091e-01
2.487581199847153091e-01
2.537256400458540173e-01
2.537256400458540173e-01
2.537256400458540173e-01
2.441727168513565249e-01
2.441727168513565249e-01
2.594573939625525183e-01
2.594573939625525183e-01
2.594573939625525183e-01
2.357661444401986939e-01
2.357661444401986939e-01
2.392051967902178167e-01
2.392051967902178167e-01
2.392051967902178167e-01
2.426442491402369117e-01
2.426442491402369117e-01
2.376767290790982035e-01
2.376767290790982035e-01
2.564004585403133474e-01
2.564004585403133474e-01
2.564004585403133474e-01
2.315628582346198061e-01
2.315628582346198061e-01
2.403515475735575058e-01
2.403515475735575058e-01
2.403515475735575058e-01
2.483760030569354127e-01
2.483760030569354127e-01
2.495223538402751295e-01
2.495223538402751295e-01
2.495223538402751295e-01
2.544898739014138100e-01
2.544898739014138100e-01
2.533435231180741209e-01
2.533435231180741209e-01
2.533435231180741209e-01
2.327092090179594952e-01
2.327092090179594952e-01
2.537256400458540173e-01
2.537256400458540173e-01
2.537256400458540173e-01
2.403515475735575058e-01
2.403515475735575058e-01
2.525792892625143282e-01
2.525792892625143282e-01
2.525792892625143282e-01
2.334734428735192879e-01
2.334734428735192879e-01
2.453190676346962140e-01
2.453190676346962140e-01
2.453190676346962140e-01
2.262132212457011737e-01
2.262132212457011737e-01
2.399694306457776094e-01
2.399694306457776094e-01
2.399694306457776094e-01
2.296522735957202965e-01
2.296522735957202965e-01
2.281238058846006833e-01
2.281238058846006833e-01
2.281238058846006833e-01
2.269774551012609942e-01
2.269774551012609942e-01
2.334734428735192879e-01
2.334734428735192879e-01
2.334734428735192879e-01
2.288880397401604760e-01
2.288880397401604760e-01
2.361482613679785902e-01
2.361482613679785902e-01
2.361482613679785902e-01
2.323270920901795988e-01
2.323270920901795988e-01
2.514329384791746391e-01
2.514329384791746391e-01
2.514329384791746391e-01
2.361482613679785902e-01
2.361482613679785902e-01
2.307986243790599856e-01
2.307986243790599856e-01
2.307986243790599856e-01
2.300343905235001929e-01
2.300343905235001929e-01
2.254489873901413810e-01
2.254489873901413810e-01
2.254489873901413810e-01
2.453190676346962140e-01
2.453190676346962140e-01
2.304165074512800893e-01
2.304165074512800893e-01
2.304165074512800893e-01
2.457011845624761104e-01
2.457011845624761104e-01
2.327092090179594952e-01
2.327092090179594952e-01
2.327092090179594952e-01
2.487581199847153091e-01
2.487581199847153091e-01
2.384409629346579962e-01
2.384409629346579962e-01
2.384409629346579962e-01
2.323270920901795988e-01
2.323270920901795988e-01
2.292701566679404002e-01
2.292701566679404002e-01
2.292701566679404002e-01
2.529614061902942246e-01
2.529614061902942246e-01
2.235384027512418714e-01
2.235384027512418714e-01
2.235384027512418714e-01
2.468475353458158272e-01
2.468475353458158272e-01
2.499044707680550259e-01
2.499044707680550259e-01
2.499044707680550259e-01
2.445548337791364213e-01
2.445548337791364213e-01
2.426442491402369117e-01
2.426442491402369117e-01
2.426442491402369117e-01
2.231562858234619751e-01
2.231562858234619751e-01
2.208635842567825691e-01
2.208635842567825691e-01
2.208635842567825691e-01
2.273595720290408906e-01
2.273595720290408906e-01
2.395873137179977130e-01
2.395873137179977130e-01
2.395873137179977130e-01
2.269774551012609942e-01
2.269774551012609942e-01
2.445548337791364213e-01
2.445548337791364213e-01
2.445548337791364213e-01
2.353840275124187975e-01
2.353840275124187975e-01
2.418800152846771190e-01
2.418800152846771190e-01
2.418800152846771190e-01
2.430263660680168081e-01
2.430263660680168081e-01
2.327092090179594952e-01
2.327092090179594952e-01
2.327092090179594952e-01
2.338555598012991843e-01
2.338555598012991843e-01
2.181887657623232668e-01
2.181887657623232668e-01
2.181887657623232668e-01
2.189529996178830595e-01
2.189529996178830595e-01
2.158960641956438609e-01
2.158960641956438609e-01
2.158960641956438609e-01
2.281238058846006833e-01
2.281238058846006833e-01
2.369124952235384107e-01
2.369124952235384107e-01
2.369124952235384107e-01
2.365303782957585144e-01
2.365303782957585144e-01
2.139854795567443513e-01
2.139854795567443513e-01
2.139854795567443513e-01
2.361482613679785902e-01
2.361482613679785902e-01
2.132212457011845586e-01
2.132212457011845586e-01
2.132212457011845586e-01
2.158960641956438609e-01
2.158960641956438609e-01
2.235384027512418714e-01
2.235384027512418714e-01
2.235384027512418714e-01
2.220099350401222860e-01
2.220099350401222860e-01
2.361482613679785902e-01
2.361482613679785902e-01
2.361482613679785902e-01
2.239205196790217678e-01
2.239205196790217678e-01
2.162781811234237572e-01
2.162781811234237572e-01
2.162781811234237572e-01
2.120748949178448695e-01
2.120748949178448695e-01
2.063431410011463407e-01
2.063431410011463407e-01
2.063431410011463407e-01
2.243026366068016919e-01
2.243026366068016919e-01
2.250668704623614846e-01
2.250668704623614846e-01
2.250668704623614846e-01
2.174245319067634741e-01
2.174245319067634741e-01
2.277416889568207869e-01
2.277416889568207869e-01
2.277416889568207869e-01
2.311807413068398820e-01
2.311807413068398820e-01
2.319449751623997025e-01
2.319449751623997025e-01
2.319449751623997025e-01
2.040504394344669348e-01
2.040504394344669348e-01
2.074894917844860576e-01
2.074894917844860576e-01
2.074894917844860576e-01
2.258311043179212774e-01
2.258311043179212774e-01
2.212457011845624655e-01
2.212457011845624655e-01
2.212457011845624655e-01
2.216278181123423896e-01
2.216278181123423896e-01
2.101643102789453599e-01
2.101643102789453599e-01
2.250668704623614846e-01
2.250668704623614846e-01
2.250668704623614846e-01
2.281238058846006833e-01
2.281238058846006833e-01
2.288880397401604760e-01
2.288880397401604760e-01
2.288880397401604760e-01
2.109285441345051526e-01
2.109285441345051526e-01
2.193351165456629837e-01
2.193351165456629837e-01
2.193351165456629837e-01
2.086358425678257467e-01
2.086358425678257467e-01
2.025219717233473493e-01
2.025219717233473493e-01
2.025219717233473493e-01
2.246847535345815883e-01
2.246847535345815883e-01
1.979365685899885374e-01
1.979365685899885374e-01
1.979365685899885374e-01
1.979365685899885374e-01
1.979365685899885374e-01
2.029040886511272457e-01
2.029040886511272457e-01
2.029040886511272457e-01
1.979365685899885374e-01
1.979365685899885374e-01
2.067252579289262648e-01
2.067252579289262648e-01
2.067252579289262648e-01
2.139854795567443513e-01
2.139854795567443513e-01
2.250668704623614846e-01
2.250668704623614846e-01
2.250668704623614846e-01
1.933511654566297255e-01
1.933511654566297255e-01
2.055789071455865480e-01
2.055789071455865480e-01
2.055789071455865480e-01
2.006113870844478397e-01
2.006113870844478397e-01
2.006113870844478397e-01
2.006113870844478397e-01
2.006113870844478397e-01
2.178066488345433704e-01
2.178066488345433704e-01
1.983186855177684338e-01
1.983186855177684338e-01
1.983186855177684338e-01
1.987008024455483302e-01
1.987008024455483302e-01
2.116927779900649731e-01
2.116927779900649731e-01
2.116927779900649731e-01
1.971723347344287447e-01
1.971723347344287447e-01
2.166602980512036813e-01
2.166602980512036813e-01
2.166602980512036813e-01
1.910584638899503196e-01
1.910584638899503196e-01
2.097821933511654635e-01
2.097821933511654635e-01
2.097821933511654635e-01
2.124570118456247658e-01
2.124570118456247658e-01
1.998471532288880470e-01
1.998471532288880470e-01
1.998471532288880470e-01
2.101643102789453599e-01
2.101643102789453599e-01
2.136033626289644549e-01
2.136033626289644549e-01
2.136033626289644549e-01
2.178066488345433704e-01
2.178066488345433704e-01
2.067252579289262648e-01
2.067252579289262648e-01
2.067252579289262648e-01
1.895299961788307341e-01
1.895299961788307341e-01
1.834161253343523090e-01
1.834161253343523090e-01
1.834161253343523090e-01
2.029040886511272457e-01
2.029040886511272457e-01
2.029040886511272457e-01
2.029040886511272457e-01
2.029040886511272457e-01
2.078716087122659539e-01
2.078716087122659539e-01
1.906763469621704232e-01
1.906763469621704232e-01
1.906763469621704232e-01
1.952617500955292351e-01
1.952617500955292351e-01
2.109285441345051526e-01
2.109285441345051526e-01
2.109285441345051526e-01
1.860909438288116113e-01
1.860909438288116113e-01
1.849445930454719222e-01
1.849445930454719222e-01
1.849445930454719222e-01
2.067252579289262648e-01
2.067252579289262648e-01
2.040504394344669348e-01
2.040504394344669348e-01
2.040504394344669348e-01
1.998471532288880470e-01
1.998471532288880470e-01
1.937332823844096219e-01
1.937332823844096219e-01
1.937332823844096219e-01
1.853267099732518186e-01
1.853267099732518186e-01
1.880015284677111209e-01
1.880015284677111209e-01
1.880015284677111209e-01
2.044325563622468589e-01
2.044325563622468589e-01
1.929690485288498292e-01
1.929690485288498292e-01
1.929690485288498292e-01
2.124570118456247658e-01
2.124570118456247658e-01
2.021398547955674529e-01
2.021398547955674529e-01
2.021398547955674529e-01
1.876194115399312246e-01
1.876194115399312246e-01
2.105464272067252562e-01
2.105464272067252562e-01
2.105464272067252562e-01
2.086358425678257467e-01
2.086358425678257467e-01
2.067252579289262648e-01
2.067252579289262648e-01
2.067252579289262648e-01
1.853267099732518186e-01
1.853267099732518186e-01
2.051967902178066516e-01
2.051967902178066516e-01
2.051967902178066516e-01
2.059610240733664444e-01
2.059610240733664444e-01
1.868551776843714041e-01
1.868551776843714041e-01
1.868551776843714041e-01
1.860909438288116113e-01
1.860909438288116113e-01
1.994650363011081506e-01
1.994650363011081506e-01
1.994650363011081506e-01
2.120748949178448695e-01
2.120748949178448695e-01
2.105464272067252562e-01
2.105464272067252562e-01
2.105464272067252562e-01
1.987008024455483302e-01
1.987008024455483302e-01
1.948796331677493388e-01
1.948796331677493388e-01
1.948796331677493388e-01
2.071073748567061612e-01
2.071073748567061612e-01
1.857088269010317150e-01
1.857088269010317150e-01
1.857088269010317150e-01
2.109285441345051526e-01
2.109285441345051526e-01
1.910584638899503196e-01
1.910584638899503196e-01
1.910584638899503196e-01
2.124570118456247658e-01
2.124570118456247658e-01
1.990829193733282265e-01
1.990829193733282265e-01
1.990829193733282265e-01
2.116927779900649731e-01
2.116927779900649731e-01
1.914405808177302160e-01
1.914405808177302160e-01
1.914405808177302160e-01
1.864730607565915077e-01
1.864730607565915077e-01
1.876194115399312246e-01
1.876194115399312246e-01
1.876194115399312246e-01
1.979365685899885374e-01
1.979365685899885374e-01
1.922048146732900364e-01
1.922048146732900364e-01
1.922048146732900364e-01
1.857088269010317150e-01
1.857088269010317150e-01
2.105464272067252562e-01
2.105464272067252562e-01
2.105464272067252562e-01
2.116927779900649731e-01
2.116927779900649731e-01
1.868551776843714041e-01
1.868551776843714041e-01
2.055789071455865480e-01
2.055789071455865480e-01
2.055789071455865480e-01
1.944975162399694424e-01
1.944975162399694424e-01
2.036683225066870384e-01
2.036683225066870384e-01
2.036683225066870384e-01
1.880015284677111209e-01
1.880015284677111209e-01
2.055789071455865480e-01
2.055789071455865480e-01
2.055789071455865480e-01
1.765380206343140912e-01
1.765380206343140912e-01
1.860909438288116113e-01
1.860909438288116113e-01
1.860909438288116113e-01
2.036683225066870384e-01
2.036683225066870384e-01
1.956438670233091315e-01
1.956438670233091315e-01
1.956438670233091315e-01
1.967902178066488483e-01
1.967902178066488483e-01
1.979365685899885374e-01
1.979365685899885374e-01
1.979365685899885374e-01
1.853267099732518186e-01
1.853267099732518186e-01
1.941153993121895183e-01
1.941153993121895183e-01
1.941153993121895183e-01
2.006113870844478397e-01
2.006113870844478397e-01
1.727168513565150998e-01
1.727168513565150998e-01
1.727168513565150998e-01
1.948796331677493388e-01
1.948796331677493388e-01
1.925869316010699328e-01
1.925869316010699328e-01
1.925869316010699328e-01
1.837982422621322054e-01
1.837982422621322054e-01
1.887657623232709136e-01
1.887657623232709136e-01
1.887657623232709136e-01
1.925869316010699328e-01
1.925869316010699328e-01
2.006113870844478397e-01
2.006113870844478397e-01
2.006113870844478397e-01
1.918226977455101123e-01
1.918226977455101123e-01
2.025219717233473493e-01
2.025219717233473493e-01
2.025219717233473493e-01
1.765380206343140912e-01
1.765380206343140912e-01
1.944975162399694424e-01
1.944975162399694424e-01
1.944975162399694424e-01
1.799770729843332140e-01
1.799770729843332140e-01
1.929690485288498292e-01
1.929690485288498292e-01
1.929690485288498292e-01
2.078716087122659539e-01
2.078716087122659539e-01
2.048146732900267553e-01
2.048146732900267553e-01
2.048146732900267553e-01
2.124570118456247658e-01
2.124570118456247658e-01
2.220099350401222860e-01
2.220099350401222860e-01
2.220099350401222860e-01
2.208635842567825691e-01
2.208635842567825691e-01
2.285059228123805797e-01
2.285059228123805797e-01
2.285059228123805797e-01
2.254489873901413810e-01
2.254489873901413810e-01
2.090179594956056430e-01
2.090179594956056430e-01
2.090179594956056430e-01
2.178066488345433704e-01
2.178066488345433704e-01
2.392051967902178167e-01
2.392051967902178167e-01
2.392051967902178167e-01
2.445548337791364213e-01
2.445548337791364213e-01
2.457011845624761104e-01
2.457011845624761104e-01
2.457011845624761104e-01
2.369124952235384107e-01
2.369124952235384107e-01
2.579289262514329328e-01
2.579289262514329328e-01
2.579289262514329328e-01
2.701566679403897830e-01
2.701566679403897830e-01
2.663354986625907639e-01
2.663354986625907639e-01
2.663354986625907639e-01
2.777990064959877659e-01
2.777990064959877659e-01
2.892625143293847678e-01
2.892625143293847678e-01
2.892625143293847678e-01
2.747420710737485394e-01
2.747420710737485394e-01
2.915552158960642015e-01
2.915552158960642015e-01
2.915552158960642015e-01
2.907909820405044088e-01
2.907909820405044088e-01
3.007260221627818253e-01
3.007260221627818253e-01
3.007260221627818253e-01
2.915552158960642015e-01
2.915552158960642015e-01
2.991975544516621843e-01
2.991975544516621843e-01
2.991975544516621843e-01
3.060756591517004299e-01
3.060756591517004299e-01
3.034008406572410999e-01
3.034008406572410999e-01
3.034008406572410999e-01
3.037829575850209962e-01
3.037829575850209962e-01
3.056935422239205336e-01
3.056935422239205336e-01
3.056935422239205336e-01
3.236530378295758292e-01
3.236530378295758292e-01
3.156285823461979501e-01
3.156285823461979501e-01
3.156285823461979501e-01
3.022544898739014108e-01
3.022544898739014108e-01
3.102789453572793454e-01
3.102789453572793454e-01
3.102789453572793454e-01
3.152464654184180537e-01
3.152464654184180537e-01
3.148643484906381573e-01
3.148643484906381573e-01
3.148643484906381573e-01
3.335880779518532457e-01
3.335880779518532457e-01
3.133358807795185164e-01
3.133358807795185164e-01
3.133358807795185164e-01
3.167749331295376392e-01
3.167749331295376392e-01
3.225066870462361401e-01
3.225066870462361401e-01
3.225066870462361401e-01
3.175391669850974319e-01
3.175391669850974319e-01
3.213603362628964510e-01
3.213603362628964510e-01
3.213603362628964510e-01
3.133358807795185164e-01
3.133358807795185164e-01
3.240351547573557256e-01
3.240351547573557256e-01
3.240351547573557256e-01
3.290026748184944339e-01
3.290026748184944339e-01
3.259457393962552629e-01
3.259457393962552629e-01
3.259457393962552629e-01
3.316774933129537639e-01
3.316774933129537639e-01
3.293847917462743857e-01
3.293847917462743857e-01
3.293847917462743857e-01
3.339701948796331421e-01
3.339701948796331421e-01
3.098968284294994491e-01
3.098968284294994491e-01
3.098968284294994491e-01
3.118074130683989309e-01
3.118074130683989309e-01
3.324417271685135566e-01
3.324417271685135566e-01
3.324417271685135566e-01
3.163928162017577428e-01
3.163928162017577428e-01
3.328238440962934530e-01
3.328238440962934530e-01
3.328238440962934530e-01
3.316774933129537639e-01
3.316774933129537639e-01
3.328238440962934530e-01
3.328238440962934530e-01
3.228888039740160365e-01
3.228888039740160365e-01
3.228888039740160365e-01
3.255636224684753666e-01
3.255636224684753666e-01
3.270920901795949520e-01
3.270920901795949520e-01
3.270920901795949520e-01
3.198318685517768656e-01
3.198318685517768656e-01
3.335880779518532457e-01
3.335880779518532457e-01
3.335880779518532457e-01
3.362628964463125758e-01
3.362628964463125758e-01
3.286205578907145375e-01
3.286205578907145375e-01
3.286205578907145375e-01
3.183034008406572246e-01
3.183034008406572246e-01
3.255636224684753666e-01
3.255636224684753666e-01
3.255636224684753666e-01
3.137179977072984127e-01
3.137179977072984127e-01
3.255636224684753666e-01
3.255636224684753666e-01
3.255636224684753666e-01
3.312953763851738676e-01
3.312953763851738676e-01
3.259457393962552629e-01
3.259457393962552629e-01
3.259457393962552629e-01
3.270920901795949520e-01
3.270920901795949520e-01
3.316774933129537639e-01
3.316774933129537639e-01
3.316774933129537639e-01
3.286205578907145375e-01
3.286205578907145375e-01
3.251815055406954702e-01
3.251815055406954702e-01
3.251815055406954702e-01
3.274742071073748484e-01
3.274742071073748484e-01
3.137179977072984127e-01
3.137179977072984127e-01
3.137179977072984127e-01
3.064577760794803263e-01
3.064577760794803263e-01
3.083683607183798081e-01
3.083683607183798081e-01
3.083683607183798081e-01
3.290026748184944339e-01
3.290026748184944339e-01
3.125716469239587236e-01
3.125716469239587236e-01
3.125716469239587236e-01
3.305311425296140748e-01
3.305311425296140748e-01
3.079862437905999117e-01
3.079862437905999117e-01
3.079862437905999117e-01
3.060756591517004299e-01
3.060756591517004299e-01
