1.604891096675582773e-01
1.604891096675582773e-01
1.604891096675582773e-01
1.532288880397401631e-01
1.532288880397401631e-01
1.505540695452808608e-01
1.505540695452808608e-01
1.505540695452808608e-01
1.597248758119984846e-01
1.597248758119984846e-01
1.417653802063431334e-01
1.417653802063431334e-01
1.417653802063431334e-01
1.429117309896828503e-01
1.429117309896828503e-01
1.593427588842185605e-01
1.593427588842185605e-01
1.566679403897592582e-01
1.566679403897592582e-01
1.566679403897592582e-01
1.413832632785632371e-01
1.413832632785632371e-01
1.612533435231180701e-01
1.612533435231180701e-01
1.612533435231180701e-01
1.543752388230798522e-01
1.543752388230798522e-01
1.471150171952617380e-01
1.471150171952617380e-01
1.471150171952617380e-01
1.505540695452808608e-01
1.505540695452808608e-01
1.623996943064577869e-01
1.623996943064577869e-01
1.623996943064577869e-01
1.425296140619029539e-01
1.425296140619029539e-01
1.432938479174627466e-01
1.432938479174627466e-01
1.432938479174627466e-01
1.574321742453190787e-01
1.574321742453190787e-01
1.654566297286969856e-01
1.654566297286969856e-01
1.654566297286969856e-01
1.440580817730225394e-01
1.440580817730225394e-01
1.631639281620175796e-01
1.631639281620175796e-01
1.631639281620175796e-01
1.643102789453572687e-01
1.643102789453572687e-01
1.440580817730225394e-01
1.440580817730225394e-01
1.440580817730225394e-01
1.631639281620175796e-01
1.631639281620175796e-01
1.474971341230416622e-01
1.474971341230416622e-01
1.474971341230416622e-01
1.478792510508215585e-01
1.478792510508215585e-01
1.601069927397783810e-01
1.601069927397783810e-01
1.601069927397783810e-01
1.421474971341230298e-01
1.421474971341230298e-01
1.406190294230034443e-01
1.406190294230034443e-01
1.406190294230034443e-01
1.555215896064195691e-01
1.555215896064195691e-01
1.398547955674436516e-01
1.398547955674436516e-01
1.398547955674436516e-01
1.432938479174627466e-01
1.432938479174627466e-01
1.608712265953381737e-01
1.608712265953381737e-01
1.608712265953381737e-01
1.589606419564386641e-01
1.589606419564386641e-01
1.555215896064195691e-01
1.555215896064195691e-01
1.555215896064195691e-01
1.463507833397019453e-01
1.463507833397019453e-01
1.681314482231562879e-01
1.681314482231562879e-01
1.681314482231562879e-01
1.536110049675200595e-01
1.536110049675200595e-01
1.543752388230798522e-01
1.543752388230798522e-01
1.543752388230798522e-01
1.413832632785632371e-01
1.413832632785632371e-01
1.513183034008406536e-01
1.513183034008406536e-01
1.513183034008406536e-01
1.601069927397783810e-01
1.601069927397783810e-01
1.501719526175009645e-01
1.501719526175009645e-01
1.501719526175009645e-01
1.597248758119984846e-01
1.597248758119984846e-01
1.673672143675964952e-01
1.673672143675964952e-01
1.673672143675964952e-01
1.559037065341994654e-01
1.559037065341994654e-01
1.520825372564004463e-01
1.520825372564004463e-01
1.520825372564004463e-01
1.623996943064577869e-01
1.623996943064577869e-01
1.578142911730989750e-01
1.578142911730989750e-01
1.578142911730989750e-01
1.463507833397019453e-01
1.463507833397019453e-01
1.436759648452426430e-01
1.436759648452426430e-01
1.436759648452426430e-01
1.585785250286587678e-01
1.585785250286587678e-01
1.631639281620175796e-01
1.631639281620175796e-01
1.631639281620175796e-01
1.566679403897592582e-01
1.566679403897592582e-01
1.501719526175009645e-01
1.501719526175009645e-01
1.501719526175009645e-01
1.593427588842185605e-01
1.593427588842185605e-01
1.627818112342376833e-01
1.627818112342376833e-01
1.627818112342376833e-01
1.669850974398165711e-01
1.669850974398165711e-01
1.429117309896828503e-01
1.429117309896828503e-01
1.429117309896828503e-01
1.455865494841421526e-01
1.455865494841421526e-01
1.455865494841421526e-01
1.455865494841421526e-01
1.455865494841421526e-01
1.635460450897974760e-01
1.635460450897974760e-01
1.608712265953381737e-01
1.608712265953381737e-01
1.608712265953381737e-01
1.463507833397019453e-01
1.463507833397019453e-01
1.444401987008024357e-01
1.444401987008024357e-01
1.444401987008024357e-01
1.524646541841803704e-01
1.524646541841803704e-01
1.474971341230416622e-01
1.474971341230416622e-01
1.474971341230416622e-01
1.581964081008788714e-01
1.581964081008788714e-01
1.639281620175773724e-01
1.639281620175773724e-01
1.639281620175773724e-01
1.620175773786778628e-01
1.620175773786778628e-01
1.440580817730225394e-01
1.440580817730225394e-01
1.440580817730225394e-01
1.578142911730989750e-01
1.578142911730989750e-01
1.463507833397019453e-01
1.463507833397019453e-01
1.463507833397019453e-01
1.482613679786014549e-01
1.482613679786014549e-01
1.459686664119220489e-01
1.459686664119220489e-01
1.459686664119220489e-01
1.654566297286969856e-01
1.654566297286969856e-01
1.539931218952999559e-01
1.539931218952999559e-01
1.539931218952999559e-01
1.429117309896828503e-01
1.429117309896828503e-01
1.425296140619029539e-01
1.425296140619029539e-01
1.425296140619029539e-01
1.494077187619411440e-01
1.494077187619411440e-01
1.417653802063431334e-01
1.417653802063431334e-01
1.417653802063431334e-01
1.539931218952999559e-01
1.539931218952999559e-01
1.555215896064195691e-01
1.555215896064195691e-01
1.555215896064195691e-01
1.536110049675200595e-01
1.536110049675200595e-01
1.421474971341230298e-01
1.421474971341230298e-01
1.421474971341230298e-01
1.406190294230034443e-01
1.406190294230034443e-01
1.585785250286587678e-01
1.585785250286587678e-01
1.585785250286587678e-01
1.597248758119984846e-01
1.597248758119984846e-01
1.417653802063431334e-01
1.417653802063431334e-01
1.432938479174627466e-01
1.432938479174627466e-01
1.432938479174627466e-01
1.432938479174627466e-01
1.432938479174627466e-01
1.440580817730225394e-01
1.440580817730225394e-01
1.440580817730225394e-01
1.429117309896828503e-01
1.429117309896828503e-01
1.658387466564768820e-01
1.658387466564768820e-01
1.658387466564768820e-01
1.402369124952235480e-01
1.402369124952235480e-01
1.421474971341230298e-01
1.421474971341230298e-01
1.421474971341230298e-01
1.474971341230416622e-01
1.474971341230416622e-01
1.539931218952999559e-01
1.539931218952999559e-01
1.539931218952999559e-01
1.474971341230416622e-01
1.474971341230416622e-01
1.455865494841421526e-01
1.455865494841421526e-01
1.455865494841421526e-01
1.623996943064577869e-01
1.623996943064577869e-01
1.459686664119220489e-01
1.459686664119220489e-01
1.459686664119220489e-01
1.524646541841803704e-01
1.524646541841803704e-01
1.482613679786014549e-01
1.482613679786014549e-01
1.482613679786014549e-01
1.608712265953381737e-01
1.608712265953381737e-01
1.708062667176155902e-01
1.708062667176155902e-01
1.708062667176155902e-01
1.643102789453572687e-01
1.643102789453572687e-01
1.593427588842185605e-01
1.593427588842185605e-01
1.593427588842185605e-01
1.562858234619793618e-01
1.562858234619793618e-01
1.715705005731753829e-01
1.715705005731753829e-01
1.715705005731753829e-01
1.696599159342759011e-01
1.696599159342759011e-01
1.581964081008788714e-01
1.581964081008788714e-01
1.581964081008788714e-01
1.811234237676729031e-01
1.811234237676729031e-01
1.688956820787160806e-01
1.688956820787160806e-01
1.688956820787160806e-01
1.849445930454719222e-01
1.849445930454719222e-01
1.730989682842949962e-01
1.730989682842949962e-01
1.730989682842949962e-01
1.887657623232709136e-01
1.887657623232709136e-01
1.990829193733282265e-01
1.990829193733282265e-01
1.990829193733282265e-01
1.925869316010699328e-01
1.925869316010699328e-01
2.174245319067634741e-01
2.174245319067634741e-01
2.174245319067634741e-01
2.124570118456247658e-01
2.124570118456247658e-01
2.040504394344669348e-01
2.040504394344669348e-01
2.040504394344669348e-01
2.338555598012991843e-01
2.338555598012991843e-01
2.262132212457011737e-01
2.262132212457011737e-01
2.262132212457011737e-01
2.285059228123805797e-01
2.285059228123805797e-01
2.518150554069545355e-01
2.518150554069545355e-01
2.518150554069545355e-01
2.613679786014520556e-01
2.613679786014520556e-01
2.499044707680550259e-01
2.499044707680550259e-01
2.499044707680550259e-01
2.648070309514711229e-01
2.648070309514711229e-01
2.862055789071455969e-01
2.862055789071455969e-01
2.862055789071455969e-01
2.911730989682843052e-01
2.911730989682843052e-01
2.877340466182651824e-01
2.877340466182651824e-01
2.877340466182651824e-01
2.911730989682843052e-01
2.911730989682843052e-01
3.076041268628200154e-01
3.076041268628200154e-01
3.076041268628200154e-01
3.003439052350019289e-01
3.003439052350019289e-01
3.217424531906763474e-01
3.217424531906763474e-01
3.217424531906763474e-01
3.083683607183798081e-01
3.083683607183798081e-01
3.213603362628964510e-01
3.213603362628964510e-01
3.213603362628964510e-01
3.335880779518532457e-01
3.335880779518532457e-01
3.389377149407718504e-01
3.389377149407718504e-01
3.389377149407718504e-01
3.507833397019488042e-01
3.507833397019488042e-01
3.439052350019105586e-01
3.439052350019105586e-01
3.439052350019105586e-01
3.404661826518914913e-01
3.404661826518914913e-01
3.504012227741689078e-01
3.504012227741689078e-01
3.504012227741689078e-01
3.546045089797478234e-01
3.546045089797478234e-01
3.706534199465036372e-01
3.706534199465036372e-01
3.706534199465036372e-01
3.721818876576232227e-01
3.721818876576232227e-01
3.626289644631257025e-01
3.626289644631257025e-01
3.626289644631257025e-01
3.653037829575850326e-01
3.653037829575850326e-01
3.844096293465800729e-01
3.844096293465800729e-01
3.844096293465800729e-01
3.702713030187237409e-01
3.702713030187237409e-01
3.744745892243026564e-01
3.744745892243026564e-01
3.744745892243026564e-01
3.809705769965609501e-01
3.809705769965609501e-01
3.775315246465418273e-01
3.775315246465418273e-01
3.775315246465418273e-01
3.874665647688192438e-01
3.874665647688192438e-01
3.851738632021398656e-01
3.851738632021398656e-01
3.851738632021398656e-01
3.931983186855177448e-01
3.931983186855177448e-01
3.924340848299579521e-01
3.924340848299579521e-01
3.924340848299579521e-01
3.886129155521589329e-01
3.886129155521589329e-01
3.905235001910584702e-01
3.905235001910584702e-01
3.905235001910584702e-01
4.096293465800535105e-01
4.096293465800535105e-01
4.065724111578142841e-01
4.065724111578142841e-01
4.065724111578142841e-01
4.027512418800152649e-01
4.027512418800152649e-01
3.981658387466564530e-01
3.981658387466564530e-01
3.981658387466564530e-01
3.985479556744364049e-01
3.985479556744364049e-01
4.153611004967520115e-01
4.153611004967520115e-01
4.153611004967520115e-01
4.111578142911730960e-01
4.111578142911730960e-01
4.126862820022926814e-01
4.126862820022926814e-01
4.126862820022926814e-01
4.207107374856706161e-01
4.207107374856706161e-01
4.165074512800917006e-01
4.165074512800917006e-01
4.287351929690485508e-01
4.287351929690485508e-01
4.287351929690485508e-01
4.268246083301490135e-01
4.268246083301490135e-01
4.081008788689338695e-01
4.081008788689338695e-01
4.081008788689338695e-01
4.203286205578907198e-01
4.203286205578907198e-01
4.016048910966755758e-01
4.016048910966755758e-01
4.016048910966755758e-01
4.111578142911730960e-01
4.111578142911730960e-01
4.065724111578142841e-01
4.065724111578142841e-01
4.065724111578142841e-01
4.184180359189912379e-01
4.184180359189912379e-01
4.264424914023691171e-01
4.264424914023691171e-01
4.264424914023691171e-01
4.084829957967138214e-01
4.084829957967138214e-01
4.119220481467328887e-01
4.119220481467328887e-01
4.119220481467328887e-01
4.180359189912112861e-01
4.180359189912112861e-01
4.233855559801299462e-01
4.233855559801299462e-01
4.233855559801299462e-01
4.237676729079098426e-01
4.237676729079098426e-01
4.084829957967138214e-01
4.084829957967138214e-01
4.084829957967138214e-01
4.126862820022926814e-01
4.126862820022926814e-01
4.245319067634696353e-01
4.245319067634696353e-01
4.245319067634696353e-01
4.188001528467711343e-01
4.188001528467711343e-01
4.188001528467711343e-01
4.188001528467711343e-01
4.188001528467711343e-01
4.161253343523118042e-01
4.161253343523118042e-01
4.050439434466946986e-01
4.050439434466946986e-01
4.050439434466946986e-01
4.023691249522353686e-01
4.023691249522353686e-01
4.188001528467711343e-01
4.188001528467711343e-01
4.188001528467711343e-01
4.019870080244554722e-01
4.019870080244554722e-01
4.172716851356514933e-01
4.172716851356514933e-01
4.172716851356514933e-01
4.153611004967520115e-01
4.153611004967520115e-01
4.088651127244937178e-01
4.088651127244937178e-01
4.088651127244937178e-01
4.191822697745510307e-01
4.191822697745510307e-01
4.100114635078334069e-01
4.100114635078334069e-01
4.100114635078334069e-01
3.977837218188765567e-01
3.977837218188765567e-01
4.096293465800535105e-01
4.096293465800535105e-01
4.096293465800535105e-01
4.054260603744745950e-01
4.054260603744745950e-01
3.974016048910966603e-01
3.974016048910966603e-01
3.974016048910966603e-01
4.134505158578525297e-01
4.134505158578525297e-01
4.100114635078334069e-01
4.100114635078334069e-01
4.100114635078334069e-01
3.996943064577760940e-01
3.996943064577760940e-01
3.905235001910584702e-01
3.905235001910584702e-01
3.905235001910584702e-01
3.966373710355368676e-01
3.966373710355368676e-01
4.077187619411539732e-01
4.077187619411539732e-01
4.077187619411539732e-01
4.081008788689338695e-01
4.081008788689338695e-01
3.859380970576996583e-01
3.859380970576996583e-01
3.859380970576996583e-01
3.870844478410393474e-01
3.870844478410393474e-01
3.886129155521589329e-01
3.886129155521589329e-01
3.886129155521589329e-01
3.924340848299579521e-01
3.924340848299579521e-01
3.878486816965991402e-01
3.878486816965991402e-01
3.878486816965991402e-01
3.794421092854413646e-01
3.794421092854413646e-01
3.889950324799388848e-01
3.889950324799388848e-01
3.889950324799388848e-01
3.691249522353840518e-01
3.691249522353840518e-01
3.607183798242262207e-01
3.607183798242262207e-01
3.607183798242262207e-01
3.653037829575850326e-01
3.653037829575850326e-01
3.565150936186473052e-01
3.565150936186473052e-01
3.565150936186473052e-01
3.656858998853649290e-01
3.656858998853649290e-01
3.526939243408482860e-01
3.526939243408482860e-01
3.526939243408482860e-01
3.672143675964845144e-01
3.672143675964845144e-01
3.530760412686281824e-01
3.530760412686281824e-01
3.530760412686281824e-01
3.366450133740924722e-01
3.366450133740924722e-01
3.439052350019105586e-01
3.439052350019105586e-01
3.439052350019105586e-01
3.488727550630492669e-01
3.488727550630492669e-01
3.286205578907145375e-01
3.286205578907145375e-01
3.286205578907145375e-01
3.202139854795567619e-01
3.202139854795567619e-01
3.156285823461979501e-01
3.156285823461979501e-01
3.156285823461979501e-01
3.133358807795185164e-01
3.133358807795185164e-01
3.095147115017195527e-01
3.095147115017195527e-01
3.095147115017195527e-01
3.056935422239205336e-01
3.056935422239205336e-01
3.247993886129155738e-01
3.247993886129155738e-01
3.247993886129155738e-01
3.041650745128008926e-01
3.041650745128008926e-01
3.091325945739396008e-01
3.091325945739396008e-01
3.091325945739396008e-01
3.083683607183798081e-01
3.083683607183798081e-01
3.049293083683607408e-01
3.049293083683607408e-01
3.049293083683607408e-01
2.946121513183034279e-01
2.946121513183034279e-01
3.053114252961406372e-01
3.053114252961406372e-01
3.053114252961406372e-01
2.946121513183034279e-01
2.946121513183034279e-01
3.037829575850209962e-01
3.037829575850209962e-01
3.037829575850209962e-01
2.800917080626671996e-01
2.800917080626671996e-01
3.037829575850209962e-01
3.037829575850209962e-01
3.037829575850209962e-01
2.923194497516239942e-01
2.923194497516239942e-01
2.957585021016431170e-01
2.957585021016431170e-01
2.957585021016431170e-01
2.842949942682460596e-01
2.842949942682460596e-01
2.984333205961023916e-01
2.984333205961023916e-01
2.984333205961023916e-01
2.953763851738632207e-01
2.953763851738632207e-01
2.739778372181887467e-01
2.739778372181887467e-01
2.739778372181887467e-01
2.942300343905234761e-01
2.942300343905234761e-01
2.797095911348873032e-01
2.797095911348873032e-01
2.709209017959495758e-01
2.709209017959495758e-01
2.709209017959495758e-01
2.789453572793274549e-01
2.789453572793274549e-01
2.877340466182651824e-01
2.877340466182651824e-01
2.877340466182651824e-01
2.716851356515093685e-01
2.716851356515093685e-01
2.743599541459686431e-01
2.743599541459686431e-01
2.743599541459686431e-01
2.648070309514711229e-01
2.648070309514711229e-01
2.724493695070691612e-01
2.724493695070691612e-01
2.724493695070691612e-01
2.636606801681314338e-01
2.636606801681314338e-01
2.751241880015284913e-01
2.751241880015284913e-01
2.751241880015284913e-01
2.724493695070691612e-01
2.724493695070691612e-01
2.800917080626671996e-01
2.800917080626671996e-01
2.800917080626671996e-01
2.590752770347726219e-01
2.590752770347726219e-01
2.766526557126480768e-01
2.766526557126480768e-01
2.766526557126480768e-01
2.678639663737103493e-01
2.678639663737103493e-01
2.617500955292319520e-01
2.617500955292319520e-01
2.617500955292319520e-01
2.544898739014138100e-01
2.544898739014138100e-01
2.510508215513947428e-01
2.510508215513947428e-01
2.510508215513947428e-01
2.541077569736339137e-01
2.541077569736339137e-01
2.437905999235766008e-01
2.437905999235766008e-01
2.437905999235766008e-01
2.567825754680932437e-01
2.567825754680932437e-01
2.575468093236530365e-01
2.575468093236530365e-01
2.575468093236530365e-01
2.464654184180359309e-01
2.464654184180359309e-01
2.636606801681314338e-01
2.636606801681314338e-01
2.636606801681314338e-01
2.460833014902560067e-01
2.460833014902560067e-01
2.525792892625143282e-01
2.525792892625143282e-01
2.525792892625143282e-01
2.495223538402751295e-01
2.495223538402751295e-01
2.598395108903324147e-01
2.598395108903324147e-01
2.598395108903324147e-01
2.395873137179977130e-01
2.395873137179977130e-01
2.571646923958731401e-01
2.571646923958731401e-01
2.571646923958731401e-01
2.392051967902178167e-01
2.392051967902178167e-01
2.376767290790982035e-01
2.376767290790982035e-01
2.376767290790982035e-01
2.453190676346962140e-01
2.453190676346962140e-01
2.395873137179977130e-01
2.395873137179977130e-01
2.395873137179977130e-01
2.342376767290791084e-01
2.342376767290791084e-01
2.365303782957585144e-01
2.365303782957585144e-01
2.365303782957585144e-01
2.304165074512800893e-01
2.304165074512800893e-01
2.258311043179212774e-01
2.258311043179212774e-01
2.258311043179212774e-01
2.200993504012227764e-01
2.200993504012227764e-01
2.296522735957202965e-01
2.296522735957202965e-01
2.296522735957202965e-01
2.330913259457393916e-01
2.330913259457393916e-01
2.200993504012227764e-01
2.200993504012227764e-01
2.200993504012227764e-01
2.239205196790217678e-01
2.239205196790217678e-01
2.411157814291172985e-01
2.411157814291172985e-01
2.411157814291172985e-01
2.346197936568590048e-01
2.346197936568590048e-01
2.223920519679021823e-01
2.223920519679021823e-01
2.223920519679021823e-01
2.128391287734046622e-01
2.128391287734046622e-01
2.101643102789453599e-01
2.101643102789453599e-01
2.101643102789453599e-01
2.319449751623997025e-01
2.319449751623997025e-01
2.216278181123423896e-01
2.216278181123423896e-01
2.216278181123423896e-01
2.281238058846006833e-01
2.281238058846006833e-01
2.155139472678639645e-01
2.155139472678639645e-01
2.155139472678639645e-01
2.136033626289644549e-01
2.136033626289644549e-01
2.208635842567825691e-01
2.208635842567825691e-01
2.208635842567825691e-01
2.090179594956056430e-01
2.090179594956056430e-01
2.265953381734810979e-01
2.265953381734810979e-01
2.265953381734810979e-01
2.063431410011463407e-01
2.063431410011463407e-01
2.032862055789071420e-01
2.032862055789071420e-01
2.032862055789071420e-01
2.197172334734428800e-01
2.197172334734428800e-01
2.223920519679021823e-01
2.223920519679021823e-01
2.223920519679021823e-01
2.212457011845624655e-01
2.212457011845624655e-01
2.143675964845242754e-01
2.143675964845242754e-01
2.143675964845242754e-01
2.017577378677875566e-01
2.017577378677875566e-01
2.162781811234237572e-01
2.162781811234237572e-01
2.162781811234237572e-01
2.132212457011845586e-01
2.132212457011845586e-01
1.937332823844096219e-01
1.937332823844096219e-01
1.937332823844096219e-01
2.181887657623232668e-01
2.181887657623232668e-01
1.952617500955292351e-01
1.952617500955292351e-01
1.952617500955292351e-01
2.132212457011845586e-01
2.132212457011845586e-01
2.124570118456247658e-01
2.124570118456247658e-01
2.124570118456247658e-01
1.971723347344287447e-01
1.971723347344287447e-01
2.086358425678257467e-01
2.086358425678257467e-01
2.086358425678257467e-01
1.941153993121895183e-01
1.941153993121895183e-01
1.952617500955292351e-01
1.952617500955292351e-01
1.952617500955292351e-01
1.853267099732518186e-01
1.853267099732518186e-01
1.868551776843714041e-01
1.868551776843714041e-01
1.868551776843714041e-01
1.880015284677111209e-01
1.880015284677111209e-01
2.036683225066870384e-01
2.036683225066870384e-01
2.036683225066870384e-01
1.803591899121131104e-01
1.803591899121131104e-01
1.887657623232709136e-01
1.887657623232709136e-01
1.887657623232709136e-01
1.948796331677493388e-01
1.948796331677493388e-01
1.891478792510508100e-01
1.891478792510508100e-01
1.807413068398930067e-01
1.807413068398930067e-01
1.807413068398930067e-01
1.933511654566297255e-01
1.933511654566297255e-01
1.910584638899503196e-01
1.910584638899503196e-01
1.910584638899503196e-01
1.876194115399312246e-01
1.876194115399312246e-01
1.757737867787542985e-01
1.757737867787542985e-01
1.757737867787542985e-01
1.948796331677493388e-01
1.948796331677493388e-01
1.937332823844096219e-01
1.937332823844096219e-01
1.937332823844096219e-01
1.711883836453954866e-01
1.711883836453954866e-01
1.902942300343905269e-01
1.902942300343905269e-01
1.902942300343905269e-01
1.730989682842949962e-01
1.730989682842949962e-01
1.727168513565150998e-01
1.727168513565150998e-01
1.727168513565150998e-01
1.818876576232326958e-01
1.818876576232326958e-01
1.830340084065724127e-01
1.830340084065724127e-01
1.830340084065724127e-01
1.658387466564768820e-01
1.658387466564768820e-01
1.902942300343905269e-01
1.902942300343905269e-01
1.902942300343905269e-01
1.727168513565150998e-01
1.727168513565150998e-01
1.841803591899121018e-01
1.841803591899121018e-01
1.841803591899121018e-01
1.891478792510508100e-01
1.891478792510508100e-01
1.650745128009170892e-01
1.650745128009170892e-01
1.650745128009170892e-01
1.730989682842949962e-01
1.730989682842949962e-01
1.880015284677111209e-01
1.880015284677111209e-01
1.880015284677111209e-01
1.776843714176538080e-01
1.776843714176538080e-01
1.887657623232709136e-01
1.887657623232709136e-01
1.887657623232709136e-01
1.795949560565533176e-01
1.795949560565533176e-01
1.662208635842567783e-01
1.662208635842567783e-01
1.662208635842567783e-01
1.872372946121513282e-01
1.872372946121513282e-01
1.849445930454719222e-01
1.849445930454719222e-01
1.849445930454719222e-01
1.643102789453572687e-01
1.643102789453572687e-01
1.849445930454719222e-01
1.849445930454719222e-01
1.849445930454719222e-01
1.620175773786778628e-01
1.620175773786778628e-01
1.708062667176155902e-01
1.708062667176155902e-01
1.708062667176155902e-01
1.692777990064959770e-01
1.692777990064959770e-01
1.669850974398165711e-01
1.669850974398165711e-01
1.669850974398165711e-01
1.750095529231945057e-01
1.750095529231945057e-01
1.669850974398165711e-01
1.669850974398165711e-01
1.669850974398165711e-01
1.822697745510126199e-01
1.822697745510126199e-01
1.792128391287733935e-01
1.792128391287733935e-01
1.792128391287733935e-01
1.646923958731371929e-01
1.646923958731371929e-01
1.555215896064195691e-01
1.555215896064195691e-01
1.555215896064195691e-01
1.593427588842185605e-01
1.593427588842185605e-01
1.562858234619793618e-01
1.562858234619793618e-01
1.562858234619793618e-01
1.597248758119984846e-01
1.597248758119984846e-01
1.761559037065341948e-01
1.761559037065341948e-01
1.761559037065341948e-01
1.551394726786396727e-01
1.551394726786396727e-01
1.539931218952999559e-01
1.539931218952999559e-01
1.539931218952999559e-01
1.585785250286587678e-01
1.585785250286587678e-01
1.559037065341994654e-01
1.559037065341994654e-01
1.559037065341994654e-01
1.528467711119602668e-01
1.528467711119602668e-01
1.559037065341994654e-01
1.559037065341994654e-01
1.559037065341994654e-01
1.555215896064195691e-01
1.555215896064195691e-01
1.501719526175009645e-01
1.501719526175009645e-01
1.501719526175009645e-01
1.677493312953763915e-01
1.677493312953763915e-01
1.620175773786778628e-01
1.620175773786778628e-01
1.620175773786778628e-01
1.727168513565150998e-01
1.727168513565150998e-01
1.585785250286587678e-01
1.585785250286587678e-01
1.585785250286587678e-01
1.673672143675964952e-01
1.673672143675964952e-01
1.505540695452808608e-01
1.505540695452808608e-01
1.505540695452808608e-01
1.719526175009552793e-01
1.719526175009552793e-01
1.566679403897592582e-01
1.566679403897592582e-01
1.566679403897592582e-01
1.585785250286587678e-01
1.585785250286587678e-01
1.727168513565150998e-01
1.727168513565150998e-01
1.727168513565150998e-01
1.627818112342376833e-01
1.627818112342376833e-01
1.711883836453954866e-01
1.711883836453954866e-01
1.711883836453954866e-01
1.501719526175009645e-01
1.501719526175009645e-01
1.666029805120366747e-01
1.666029805120366747e-01
1.666029805120366747e-01
1.490256018341612476e-01
1.490256018341612476e-01
1.623996943064577869e-01
1.623996943064577869e-01
1.623996943064577869e-01
1.654566297286969856e-01
1.654566297286969856e-01
1.559037065341994654e-01
1.559037065341994654e-01
1.559037065341994654e-01
1.486434849063813513e-01
1.486434849063813513e-01
1.497898356897210681e-01
1.497898356897210681e-01
1.497898356897210681e-01
1.681314482231562879e-01
1.681314482231562879e-01
1.688956820787160806e-01
1.688956820787160806e-01
1.688956820787160806e-01
1.501719526175009645e-01
1.501719526175009645e-01
1.566679403897592582e-01
1.566679403897592582e-01
1.566679403897592582e-01
1.478792510508215585e-01
1.478792510508215585e-01
1.486434849063813513e-01
1.486434849063813513e-01
1.486434849063813513e-01
1.528467711119602668e-01
1.528467711119602668e-01
1.566679403897592582e-01
1.566679403897592582e-01
1.566679403897592582e-01
1.719526175009552793e-01
1.719526175009552793e-01
1.685135651509361843e-01
1.685135651509361843e-01
1.677493312953763915e-01
1.677493312953763915e-01
1.677493312953763915e-01
1.612533435231180701e-01
1.612533435231180701e-01
1.578142911730989750e-01
1.578142911730989750e-01
1.578142911730989750e-01
1.532288880397401631e-01
1.532288880397401631e-01
1.520825372564004463e-01
1.520825372564004463e-01
1.520825372564004463e-01
1.727168513565150998e-01
1.727168513565150998e-01
1.520825372564004463e-01
1.520825372564004463e-01
1.520825372564004463e-01
1.715705005731753829e-01
1.715705005731753829e-01
1.513183034008406536e-01
1.513183034008406536e-01
1.513183034008406536e-01
1.513183034008406536e-01
1.513183034008406536e-01
1.455865494841421526e-01
1.455865494841421526e-01
1.455865494841421526e-01
1.708062667176155902e-01
1.708062667176155902e-01
1.543752388230798522e-01
1.543752388230798522e-01
1.543752388230798522e-01
1.547573557508597764e-01
1.547573557508597764e-01
1.616354604508979664e-01
1.616354604508979664e-01
1.616354604508979664e-01
1.685135651509361843e-01
1.685135651509361843e-01
1.509361864730607572e-01
1.509361864730607572e-01
1.509361864730607572e-01
1.700420328620557975e-01
1.700420328620557975e-01
1.700420328620557975e-01
1.700420328620557975e-01
1.700420328620557975e-01
1.593427588842185605e-01
1.593427588842185605e-01
1.673672143675964952e-01
1.673672143675964952e-01
1.673672143675964952e-01
1.688956820787160806e-01
1.688956820787160806e-01
1.566679403897592582e-01
1.566679403897592582e-01
1.566679403897592582e-01
1.627818112342376833e-01
1.627818112342376833e-01
1.505540695452808608e-01
1.505540695452808608e-01
1.505540695452808608e-01
1.494077187619411440e-01
1.494077187619411440e-01
1.547573557508597764e-01
1.547573557508597764e-01
1.547573557508597764e-01
1.436759648452426430e-01
1.436759648452426430e-01
1.597248758119984846e-01
1.597248758119984846e-01
1.597248758119984846e-01
1.497898356897210681e-01
1.497898356897210681e-01
1.574321742453190787e-01
1.574321742453190787e-01
1.574321742453190787e-01
1.429117309896828503e-01
1.429117309896828503e-01
1.688956820787160806e-01
1.688956820787160806e-01
1.688956820787160806e-01
1.646923958731371929e-01
1.646923958731371929e-01
1.410011463507833407e-01
1.410011463507833407e-01
1.410011463507833407e-01
1.566679403897592582e-01
1.566679403897592582e-01
1.578142911730989750e-01
1.578142911730989750e-01
1.578142911730989750e-01
1.497898356897210681e-01
1.497898356897210681e-01
1.620175773786778628e-01
1.620175773786778628e-01
1.620175773786778628e-01
1.459686664119220489e-01
1.459686664119220489e-01
1.589606419564386641e-01
1.589606419564386641e-01
1.589606419564386641e-01
1.448223156285823598e-01
1.448223156285823598e-01
1.559037065341994654e-01
1.559037065341994654e-01
1.559037065341994654e-01
1.666029805120366747e-01
1.666029805120366747e-01
1.639281620175773724e-01
1.639281620175773724e-01
1.639281620175773724e-01
1.612533435231180701e-01
1.612533435231180701e-01
1.627818112342376833e-01
1.627818112342376833e-01
1.627818112342376833e-01
1.520825372564004463e-01
1.520825372564004463e-01
1.432938479174627466e-01
1.432938479174627466e-01
1.432938479174627466e-01
1.547573557508597764e-01
1.547573557508597764e-01
1.444401987008024357e-01
1.444401987008024357e-01
1.444401987008024357e-01
1.627818112342376833e-01
1.627818112342376833e-01
1.474971341230416622e-01
1.474971341230416622e-01
1.474971341230416622e-01
1.612533435231180701e-01
1.612533435231180701e-01
1.589606419564386641e-01
1.589606419564386641e-01
1.589606419564386641e-01
1.536110049675200595e-01
1.536110049675200595e-01
1.597248758119984846e-01
1.597248758119984846e-01
1.597248758119984846e-01
1.635460450897974760e-01
1.635460450897974760e-01
1.497898356897210681e-01
1.497898356897210681e-01
1.497898356897210681e-01
1.681314482231562879e-01
1.681314482231562879e-01
1.681314482231562879e-01
1.681314482231562879e-01
1.681314482231562879e-01
1.562858234619793618e-01
1.562858234619793618e-01
1.700420328620557975e-01
1.700420328620557975e-01
1.700420328620557975e-01
1.688956820787160806e-01
1.688956820787160806e-01
1.578142911730989750e-01
1.578142911730989750e-01
1.578142911730989750e-01
1.616354604508979664e-01
1.616354604508979664e-01
1.765380206343140912e-01
1.765380206343140912e-01
1.765380206343140912e-01
1.895299961788307341e-01
1.895299961788307341e-01
1.677493312953763915e-01
1.677493312953763915e-01
1.677493312953763915e-01
1.742453190676346853e-01
1.742453190676346853e-01
1.925869316010699328e-01
1.925869316010699328e-01
1.925869316010699328e-01
1.929690485288498292e-01
1.929690485288498292e-01
1.964081008788689242e-01
1.964081008788689242e-01
1.964081008788689242e-01
1.880015284677111209e-01
1.880015284677111209e-01
2.204814673290026728e-01
2.204814673290026728e-01
2.204814673290026728e-01
2.032862055789071420e-01
2.032862055789071420e-01
2.109285441345051526e-01
2.109285441345051526e-01
2.109285441345051526e-01
2.178066488345433704e-01
2.178066488345433704e-01
2.323270920901795988e-01
2.323270920901795988e-01
2.323270920901795988e-01
2.541077569736339137e-01
2.541077569736339137e-01
2.445548337791364213e-01
2.445548337791364213e-01
2.445548337791364213e-01
2.632785632403515375e-01
2.632785632403515375e-01
2.521971723347344319e-01
2.521971723347344319e-01
2.621322124570118484e-01
2.621322124570118484e-01
2.621322124570118484e-01
2.693924340848299348e-01
2.693924340848299348e-01
2.693924340848299348e-01
2.693924340848299348e-01
2.693924340848299348e-01
2.735957202904088503e-01
2.735957202904088503e-01
2.991975544516621843e-01
2.991975544516621843e-01
2.991975544516621843e-01
2.888803974016048715e-01
2.888803974016048715e-01
3.045471914405808445e-01
3.045471914405808445e-01
3.045471914405808445e-01
3.183034008406572246e-01
3.183034008406572246e-01
3.236530378295758292e-01
3.236530378295758292e-01
3.236530378295758292e-01
3.274742071073748484e-01
3.274742071073748484e-01
3.247993886129155738e-01
3.247993886129155738e-01
3.247993886129155738e-01
3.232709209017959329e-01
3.232709209017959329e-01
3.255636224684753666e-01
3.255636224684753666e-01
3.255636224684753666e-01
3.461979365685899923e-01
3.461979365685899923e-01
3.523118074130683897e-01
3.523118074130683897e-01
3.523118074130683897e-01
3.408482995796713877e-01
3.408482995796713877e-01
3.530760412686281824e-01
3.530760412686281824e-01
3.530760412686281824e-01
3.469621704241497850e-01
3.469621704241497850e-01
3.584256782575467870e-01
3.584256782575467870e-01
3.584256782575467870e-01
3.645395491020252399e-01
3.645395491020252399e-01
3.626289644631257025e-01
3.626289644631257025e-01
3.626289644631257025e-01
3.790599923576614683e-01
3.790599923576614683e-01
3.618647306075659098e-01
3.618647306075659098e-01
3.618647306075659098e-01
3.855559801299197620e-01
3.855559801299197620e-01
3.744745892243026564e-01
3.744745892243026564e-01
3.744745892243026564e-01
3.847917462743599692e-01
3.847917462743599692e-01
3.828811616354604319e-01
3.828811616354604319e-01
3.828811616354604319e-01
3.740924722965227600e-01
3.740924722965227600e-01
3.821169277799006392e-01
3.821169277799006392e-01
3.821169277799006392e-01
3.824990447076805355e-01
3.824990447076805355e-01
3.836453954910202246e-01
3.836453954910202246e-01
3.836453954910202246e-01
3.874665647688192438e-01
3.874665647688192438e-01
3.851738632021398656e-01
3.851738632021398656e-01
3.851738632021398656e-01
3.832632785632403283e-01
3.832632785632403283e-01
3.924340848299579521e-01
3.924340848299579521e-01
3.924340848299579521e-01
3.943446694688574894e-01
3.943446694688574894e-01
4.050439434466946986e-01
4.050439434466946986e-01
4.050439434466946986e-01
3.878486816965991402e-01
3.878486816965991402e-01
3.985479556744364049e-01
3.985479556744364049e-01
3.985479556744364049e-01
3.981658387466564530e-01
3.981658387466564530e-01
4.107756973633931996e-01
4.107756973633931996e-01
4.107756973633931996e-01
3.920519679021780557e-01
3.920519679021780557e-01
4.130683989300725778e-01
4.130683989300725778e-01
4.130683989300725778e-01
3.951089033244172821e-01
3.951089033244172821e-01
3.939625525410775930e-01
3.939625525410775930e-01
3.939625525410775930e-01
4.172716851356514933e-01
4.172716851356514933e-01
3.931983186855177448e-01
3.931983186855177448e-01
3.931983186855177448e-01
3.981658387466564530e-01
3.981658387466564530e-01
3.996943064577760940e-01
3.996943064577760940e-01
3.996943064577760940e-01
3.985479556744364049e-01
3.985479556744364049e-01
4.027512418800152649e-01
4.027512418800152649e-01
4.027512418800152649e-01
4.012227741688956795e-01
4.012227741688956795e-01
4.191822697745510307e-01
4.191822697745510307e-01
4.191822697745510307e-01
4.161253343523118042e-01
4.161253343523118042e-01
3.928162017577378484e-01
3.928162017577378484e-01
3.928162017577378484e-01
3.977837218188765567e-01
3.977837218188765567e-01
3.966373710355368676e-01
3.966373710355368676e-01
3.966373710355368676e-01
3.947267863966373858e-01
3.947267863966373858e-01
3.939625525410775930e-01
3.939625525410775930e-01
3.939625525410775930e-01
4.107756973633931996e-01
4.107756973633931996e-01
3.947267863966373858e-01
3.947267863966373858e-01
3.947267863966373858e-01
4.077187619411539732e-01
4.077187619411539732e-01
4.111578142911730960e-01
4.111578142911730960e-01
4.111578142911730960e-01
4.149789835689721151e-01
4.149789835689721151e-01
3.870844478410393474e-01
3.870844478410393474e-01
3.870844478410393474e-01
3.970194879633167639e-01
3.970194879633167639e-01
4.115399312189529923e-01
4.115399312189529923e-01
4.115399312189529923e-01
3.943446694688574894e-01
3.943446694688574894e-01
4.058081773022544914e-01
4.058081773022544914e-01
4.058081773022544914e-01
3.966373710355368676e-01
3.966373710355368676e-01
4.058081773022544914e-01
4.058081773022544914e-01
4.058081773022544914e-01
3.897592663354986775e-01
3.897592663354986775e-01
4.035154757355751132e-01
4.035154757355751132e-01
4.035154757355751132e-01
3.947267863966373858e-01
3.947267863966373858e-01
3.824990447076805355e-01
3.824990447076805355e-01
3.824990447076805355e-01
3.836453954910202246e-01
3.836453954910202246e-01
4.000764233855559904e-01
4.000764233855559904e-01
4.000764233855559904e-01
3.836453954910202246e-01
3.836453954910202246e-01
3.771494077187619309e-01
3.771494077187619309e-01
3.771494077187619309e-01
3.874665647688192438e-01
3.874665647688192438e-01
3.886129155521589329e-01
3.886129155521589329e-01
3.859380970576996583e-01
3.859380970576996583e-01
3.859380970576996583e-01
3.771494077187619309e-01
3.771494077187619309e-01
3.828811616354604319e-01
3.828811616354604319e-01
3.828811616354604319e-01
3.828811616354604319e-01
3.828811616354604319e-01
3.740924722965227600e-01
3.740924722965227600e-01
3.740924722965227600e-01
3.794421092854413646e-01
3.794421092854413646e-01
3.626289644631257025e-01
3.626289644631257025e-01
3.626289644631257025e-01
3.607183798242262207e-01
3.607183798242262207e-01
3.572793274742070979e-01
3.572793274742070979e-01
3.572793274742070979e-01
3.557508597630875125e-01
3.557508597630875125e-01
3.584256782575467870e-01
3.584256782575467870e-01
3.584256782575467870e-01
3.641574321742453435e-01
3.641574321742453435e-01
3.630110813909055989e-01
3.630110813909055989e-01
3.630110813909055989e-01
3.400840657241115950e-01
3.400840657241115950e-01
3.469621704241497850e-01
3.469621704241497850e-01
3.469621704241497850e-01
3.484906381352693705e-01
3.484906381352693705e-01
3.286205578907145375e-01
3.286205578907145375e-01
3.286205578907145375e-01
3.213603362628964510e-01
3.213603362628964510e-01
3.374092472296522649e-01
3.374092472296522649e-01
3.374092472296522649e-01
3.324417271685135566e-01
3.324417271685135566e-01
3.083683607183798081e-01
3.083683607183798081e-01
3.083683607183798081e-01
3.255636224684753666e-01
3.255636224684753666e-01
3.255636224684753666e-01
3.255636224684753666e-01
3.255636224684753666e-01
3.156285823461979501e-01
3.156285823461979501e-01
3.011081390905617217e-01
3.011081390905617217e-01
3.011081390905617217e-01
3.156285823461979501e-01
3.156285823461979501e-01
3.156285823461979501e-01
3.156285823461979501e-01
3.156285823461979501e-01
3.087504776461597045e-01
3.087504776461597045e-01
2.911730989682843052e-01
2.911730989682843052e-01
2.911730989682843052e-01
2.877340466182651824e-01
2.877340466182651824e-01
2.862055789071455969e-01
2.862055789071455969e-01
2.862055789071455969e-01
2.911730989682843052e-01
2.911730989682843052e-01
2.957585021016431170e-01
2.957585021016431170e-01
2.957585021016431170e-01
2.969048528849828061e-01
2.969048528849828061e-01
2.839128773404661632e-01
2.839128773404661632e-01
2.839128773404661632e-01
2.884982804738249751e-01
2.884982804738249751e-01
2.766526557126480768e-01
2.766526557126480768e-01
2.766526557126480768e-01
2.865876958349254933e-01
2.865876958349254933e-01
2.900267481849446161e-01
2.900267481849446161e-01
2.900267481849446161e-01
2.693924340848299348e-01
2.693924340848299348e-01
2.774168895682078695e-01
2.774168895682078695e-01
2.774168895682078695e-01
2.762705387848681804e-01
2.762705387848681804e-01
2.820022927015666814e-01
2.820022927015666814e-01
2.820022927015666814e-01
2.606037447458922629e-01
2.606037447458922629e-01
2.812380588460068886e-01
2.812380588460068886e-01
2.812380588460068886e-01
2.667176155903706603e-01
2.667176155903706603e-01
2.606037447458922629e-01
2.606037447458922629e-01
2.606037447458922629e-01
2.659533817348108675e-01
2.659533817348108675e-01
2.785632403515475586e-01
2.785632403515475586e-01
2.785632403515475586e-01
2.541077569736339137e-01
2.541077569736339137e-01
2.739778372181887467e-01
2.739778372181887467e-01
2.739778372181887467e-01
2.583110431792128292e-01
2.583110431792128292e-01
2.598395108903324147e-01
2.598395108903324147e-01
2.598395108903324147e-01
2.556362246847535546e-01
2.556362246847535546e-01
2.502865876958349500e-01
2.502865876958349500e-01
2.502865876958349500e-01
2.594573939625525183e-01
2.594573939625525183e-01
2.613679786014520556e-01
2.613679786014520556e-01
2.613679786014520556e-01
2.499044707680550259e-01
2.499044707680550259e-01
2.487581199847153091e-01
2.487581199847153091e-01
2.487581199847153091e-01
2.457011845624761104e-01
2.457011845624761104e-01
2.575468093236530365e-01
2.575468093236530365e-01
2.575468093236530365e-01
2.537256400458540173e-01
2.537256400458540173e-01
2.598395108903324147e-01
2.598395108903324147e-01
2.598395108903324147e-01
2.395873137179977130e-01
2.395873137179977130e-01
2.403515475735575058e-01
2.403515475735575058e-01
2.403515475735575058e-01
2.437905999235766008e-01
2.437905999235766008e-01
2.460833014902560067e-01
2.460833014902560067e-01
2.460833014902560067e-01
2.476117692013756200e-01
2.476117692013756200e-01
2.392051967902178167e-01
2.392051967902178167e-01
2.392051967902178167e-01
2.460833014902560067e-01
2.460833014902560067e-01
2.315628582346198061e-01
2.315628582346198061e-01
2.315628582346198061e-01
2.468475353458158272e-01
2.468475353458158272e-01
2.281238058846006833e-01
2.281238058846006833e-01
2.281238058846006833e-01
2.319449751623997025e-01
2.319449751623997025e-01
2.220099350401222860e-01
2.220099350401222860e-01
2.220099350401222860e-01
2.323270920901795988e-01
2.323270920901795988e-01
2.277416889568207869e-01
2.277416889568207869e-01
2.277416889568207869e-01
2.212457011845624655e-01
2.212457011845624655e-01
2.265953381734810979e-01
2.265953381734810979e-01
2.265953381734810979e-01
2.212457011845624655e-01
2.212457011845624655e-01
2.365303782957585144e-01
2.365303782957585144e-01
2.365303782957585144e-01
2.216278181123423896e-01
2.216278181123423896e-01
2.193351165456629837e-01
2.193351165456629837e-01
2.170424149789835777e-01
2.170424149789835777e-01
2.170424149789835777e-01
2.200993504012227764e-01
2.200993504012227764e-01
2.105464272067252562e-01
2.105464272067252562e-01
2.105464272067252562e-01
2.200993504012227764e-01
2.200993504012227764e-01
2.048146732900267553e-01
2.048146732900267553e-01
2.048146732900267553e-01
2.036683225066870384e-01
2.036683225066870384e-01
2.044325563622468589e-01
2.044325563622468589e-01
2.044325563622468589e-01
2.220099350401222860e-01
2.220099350401222860e-01
2.151318303400840681e-01
2.151318303400840681e-01
2.151318303400840681e-01
2.109285441345051526e-01
2.109285441345051526e-01
2.017577378677875566e-01
2.017577378677875566e-01
2.017577378677875566e-01
2.029040886511272457e-01
2.029040886511272457e-01
2.113106610622850490e-01
2.113106610622850490e-01
2.113106610622850490e-01
2.051967902178066516e-01
2.051967902178066516e-01
2.021398547955674529e-01
2.021398547955674529e-01
2.021398547955674529e-01
2.170424149789835777e-01
2.170424149789835777e-01
2.113106610622850490e-01
2.113106610622850490e-01
2.113106610622850490e-01
1.990829193733282265e-01
1.990829193733282265e-01
2.036683225066870384e-01
2.036683225066870384e-01
2.036683225066870384e-01
2.097821933511654635e-01
2.097821933511654635e-01
2.074894917844860576e-01
2.074894917844860576e-01
2.074894917844860576e-01
2.094000764233855671e-01
2.094000764233855671e-01
2.082537256400458503e-01
2.082537256400458503e-01
2.082537256400458503e-01
1.880015284677111209e-01
1.880015284677111209e-01
1.876194115399312246e-01
1.876194115399312246e-01
1.876194115399312246e-01
2.055789071455865480e-01
2.055789071455865480e-01
1.841803591899121018e-01
1.841803591899121018e-01
1.841803591899121018e-01
2.021398547955674529e-01
2.021398547955674529e-01
1.807413068398930067e-01
1.807413068398930067e-01
1.807413068398930067e-01
1.834161253343523090e-01
1.834161253343523090e-01
1.849445930454719222e-01
1.849445930454719222e-01
1.849445930454719222e-01
1.738632021398547889e-01
1.738632021398547889e-01
1.857088269010317150e-01
1.857088269010317150e-01
1.857088269010317150e-01
1.845624761176920259e-01
1.845624761176920259e-01
1.860909438288116113e-01
1.860909438288116113e-01
1.860909438288116113e-01
1.880015284677111209e-01
1.880015284677111209e-01
1.784486052732136008e-01
1.784486052732136008e-01
1.784486052732136008e-01
1.719526175009552793e-01
1.719526175009552793e-01
1.753916698509744021e-01
1.753916698509744021e-01
1.753916698509744021e-01
1.826518914787925163e-01
1.826518914787925163e-01
1.883836453954910173e-01
1.883836453954910173e-01
1.883836453954910173e-01
1.899121131066106305e-01
1.899121131066106305e-01
1.857088269010317150e-01
1.857088269010317150e-01
1.857088269010317150e-01
1.784486052732136008e-01
1.784486052732136008e-01
1.704241497898356938e-01
1.704241497898356938e-01
1.704241497898356938e-01
1.845624761176920259e-01
1.845624761176920259e-01
1.826518914787925163e-01
1.826518914787925163e-01
1.826518914787925163e-01
1.891478792510508100e-01
1.891478792510508100e-01
1.666029805120366747e-01
1.666029805120366747e-01
1.666029805120366747e-01
1.803591899121131104e-01
1.803591899121131104e-01
1.849445930454719222e-01
1.849445930454719222e-01
1.849445930454719222e-01
1.803591899121131104e-01
1.803591899121131104e-01
1.788307222009934971e-01
1.788307222009934971e-01
1.788307222009934971e-01
1.845624761176920259e-01
1.845624761176920259e-01
1.574321742453190787e-01
1.574321742453190787e-01
1.574321742453190787e-01
1.673672143675964952e-01
1.673672143675964952e-01
1.776843714176538080e-01
1.776843714176538080e-01
1.776843714176538080e-01
1.803591899121131104e-01
1.803591899121131104e-01
1.643102789453572687e-01
1.643102789453572687e-01
1.643102789453572687e-01
1.685135651509361843e-01
1.685135651509361843e-01
1.551394726786396727e-01
1.551394726786396727e-01
1.551394726786396727e-01
1.776843714176538080e-01
1.776843714176538080e-01
1.704241497898356938e-01
1.704241497898356938e-01
1.704241497898356938e-01
1.658387466564768820e-01
1.658387466564768820e-01
1.753916698509744021e-01
1.753916698509744021e-01
1.753916698509744021e-01
1.547573557508597764e-01
1.547573557508597764e-01
1.539931218952999559e-01
1.539931218952999559e-01
1.539931218952999559e-01
1.788307222009934971e-01
1.788307222009934971e-01
1.536110049675200595e-01
1.536110049675200595e-01
1.536110049675200595e-01
1.547573557508597764e-01
1.547573557508597764e-01
1.547573557508597764e-01
1.547573557508597764e-01
1.547573557508597764e-01
1.746274359954146094e-01
1.746274359954146094e-01
1.593427588842185605e-01
1.593427588842185605e-01
1.593427588842185605e-01
1.612533435231180701e-01
1.612533435231180701e-01
1.513183034008406536e-01
1.513183034008406536e-01
1.513183034008406536e-01
1.517004203286205499e-01
1.517004203286205499e-01
1.524646541841803704e-01
1.524646541841803704e-01
1.524646541841803704e-01
1.673672143675964952e-01
1.673672143675964952e-01
1.681314482231562879e-01
1.681314482231562879e-01
1.681314482231562879e-01
1.505540695452808608e-01
1.505540695452808608e-01
1.505540695452808608e-01
1.505540695452808608e-01
1.581964081008788714e-01
1.581964081008788714e-01
1.581964081008788714e-01
1.681314482231562879e-01
1.681314482231562879e-01
1.723347344287352034e-01
1.723347344287352034e-01
1.723347344287352034e-01
1.555215896064195691e-01
1.555215896064195691e-01
1.700420328620557975e-01
1.700420328620557975e-01
1.700420328620557975e-01
1.474971341230416622e-01
1.474971341230416622e-01
1.658387466564768820e-01
1.658387466564768820e-01
1.658387466564768820e-01
1.704241497898356938e-01
1.704241497898356938e-01
1.490256018341612476e-01
1.490256018341612476e-01
1.490256018341612476e-01
1.696599159342759011e-01
1.696599159342759011e-01
1.505540695452808608e-01
1.505540695452808608e-01
1.505540695452808608e-01
1.711883836453954866e-01
1.711883836453954866e-01
1.639281620175773724e-01
1.639281620175773724e-01
1.639281620175773724e-01
1.711883836453954866e-01
1.711883836453954866e-01
1.509361864730607572e-01
1.509361864730607572e-01
1.509361864730607572e-01
1.654566297286969856e-01
1.654566297286969856e-01
1.543752388230798522e-01
1.543752388230798522e-01
1.543752388230798522e-01
1.524646541841803704e-01
1.524646541841803704e-01
1.463507833397019453e-01
1.463507833397019453e-01
1.463507833397019453e-01
1.677493312953763915e-01
1.677493312953763915e-01
1.501719526175009645e-01
1.501719526175009645e-01
1.501719526175009645e-01
1.692777990064959770e-01
1.692777990064959770e-01
1.688956820787160806e-01
1.688956820787160806e-01
1.688956820787160806e-01
1.517004203286205499e-01
1.517004203286205499e-01
1.459686664119220489e-01
1.459686664119220489e-01
1.459686664119220489e-01
1.711883836453954866e-01
1.711883836453954866e-01
1.593427588842185605e-01
1.593427588842185605e-01
1.593427588842185605e-01
1.673672143675964952e-01
1.673672143675964952e-01
1.643102789453572687e-01
1.643102789453572687e-01
1.643102789453572687e-01
1.612533435231180701e-01
1.612533435231180701e-01
1.509361864730607572e-01
1.509361864730607572e-01
1.509361864730607572e-01
1.669850974398165711e-01
1.669850974398165711e-01
1.650745128009170892e-01
1.650745128009170892e-01
1.650745128009170892e-01
1.482613679786014549e-01
1.482613679786014549e-01
1.742453190676346853e-01
1.742453190676346853e-01
1.742453190676346853e-01
1.536110049675200595e-01
1.536110049675200595e-01
1.555215896064195691e-01
1.555215896064195691e-01
1.555215896064195691e-01
1.654566297286969856e-01
1.654566297286969856e-01
1.631639281620175796e-01
1.631639281620175796e-01
1.631639281620175796e-01
1.467329002674818417e-01
1.467329002674818417e-01
1.539931218952999559e-01
1.539931218952999559e-01
1.539931218952999559e-01
1.520825372564004463e-01
1.520825372564004463e-01
1.646923958731371929e-01
1.646923958731371929e-01
1.646923958731371929e-01
1.559037065341994654e-01
1.559037065341994654e-01
1.559037065341994654e-01
1.559037065341994654e-01
1.559037065341994654e-01
1.474971341230416622e-01
1.474971341230416622e-01
1.612533435231180701e-01
1.612533435231180701e-01
1.612533435231180701e-01
1.646923958731371929e-01
1.646923958731371929e-01
1.692777990064959770e-01
1.692777990064959770e-01
1.692777990064959770e-01
1.547573557508597764e-01
1.547573557508597764e-01
1.708062667176155902e-01
1.708062667176155902e-01
1.708062667176155902e-01
1.578142911730989750e-01
1.578142911730989750e-01
1.631639281620175796e-01
1.631639281620175796e-01
1.631639281620175796e-01
1.478792510508215585e-01
1.478792510508215585e-01
1.700420328620557975e-01
1.700420328620557975e-01
1.700420328620557975e-01
1.482613679786014549e-01
1.482613679786014549e-01
1.681314482231562879e-01
1.681314482231562879e-01
1.681314482231562879e-01
1.669850974398165711e-01
1.669850974398165711e-01
1.471150171952617380e-01
1.471150171952617380e-01
1.471150171952617380e-01
1.524646541841803704e-01
1.524646541841803704e-01
1.497898356897210681e-01
1.497898356897210681e-01
1.497898356897210681e-01
1.673672143675964952e-01
1.673672143675964952e-01
1.463507833397019453e-01
1.463507833397019453e-01
1.463507833397019453e-01
1.601069927397783810e-01
1.601069927397783810e-01
1.455865494841421526e-01
1.455865494841421526e-01
1.455865494841421526e-01
1.635460450897974760e-01
1.635460450897974760e-01
1.646923958731371929e-01
1.646923958731371929e-01
1.646923958731371929e-01
1.517004203286205499e-01
1.517004203286205499e-01
1.467329002674818417e-01
1.467329002674818417e-01
1.467329002674818417e-01
1.612533435231180701e-01
1.612533435231180701e-01
1.471150171952617380e-01
1.471150171952617380e-01
1.471150171952617380e-01
1.509361864730607572e-01
1.509361864730607572e-01
1.486434849063813513e-01
1.486434849063813513e-01
1.486434849063813513e-01
1.463507833397019453e-01
1.463507833397019453e-01
1.616354604508979664e-01
1.616354604508979664e-01
1.616354604508979664e-01
1.696599159342759011e-01
1.696599159342759011e-01
1.704241497898356938e-01
1.704241497898356938e-01
1.704241497898356938e-01
1.692777990064959770e-01
1.692777990064959770e-01
1.459686664119220489e-01
1.459686664119220489e-01
1.459686664119220489e-01
1.517004203286205499e-01
1.517004203286205499e-01
1.692777990064959770e-01
1.692777990064959770e-01
1.650745128009170892e-01
1.650745128009170892e-01
1.650745128009170892e-01
1.616354604508979664e-01
1.616354604508979664e-01
1.692777990064959770e-01
1.692777990064959770e-01
1.692777990064959770e-01
1.662208635842567783e-01
1.662208635842567783e-01
1.547573557508597764e-01
1.547573557508597764e-01
1.547573557508597764e-01
1.578142911730989750e-01
1.578142911730989750e-01
1.482613679786014549e-01
1.482613679786014549e-01
1.482613679786014549e-01
1.486434849063813513e-01
1.486434849063813513e-01
1.551394726786396727e-01
1.551394726786396727e-01
1.551394726786396727e-01
1.585785250286587678e-01
1.585785250286587678e-01
1.497898356897210681e-01
1.497898356897210681e-01
1.497898356897210681e-01
1.627818112342376833e-01
1.627818112342376833e-01
1.715705005731753829e-01
1.715705005731753829e-01
1.715705005731753829e-01
1.589606419564386641e-01
1.589606419564386641e-01
1.727168513565150998e-01
1.727168513565150998e-01
1.727168513565150998e-01
1.490256018341612476e-01
1.490256018341612476e-01
1.497898356897210681e-01
1.497898356897210681e-01
1.497898356897210681e-01
1.677493312953763915e-01
1.677493312953763915e-01
1.677493312953763915e-01
1.677493312953763915e-01
1.677493312953763915e-01
