1.792128391287733935e-01
1.792128391287733935e-01
1.929690485288498292e-01
1.929690485288498292e-01
1.849445930454719222e-01
1.849445930454719222e-01
1.849445930454719222e-01
1.872372946121513282e-01
1.872372946121513282e-01
1.899121131066106305e-01
1.899121131066106305e-01
1.899121131066106305e-01
1.773022544898739117e-01
1.773022544898739117e-01
1.811234237676729031e-01
1.811234237676729031e-01
1.811234237676729031e-01
1.853267099732518186e-01
1.853267099732518186e-01
1.910584638899503196e-01
1.910584638899503196e-01
1.910584638899503196e-01
1.792128391287733935e-01
1.792128391287733935e-01
1.841803591899121018e-01
1.841803591899121018e-01
1.841803591899121018e-01
1.868551776843714041e-01
1.868551776843714041e-01
1.704241497898356938e-01
1.704241497898356938e-01
1.704241497898356938e-01
1.826518914787925163e-01
1.826518914787925163e-01
1.837982422621322054e-01
1.837982422621322054e-01
1.837982422621322054e-01
1.799770729843332140e-01
1.799770729843332140e-01
1.788307222009934971e-01
1.788307222009934971e-01
1.788307222009934971e-01
1.688956820787160806e-01
1.688956820787160806e-01
1.818876576232326958e-01
1.818876576232326958e-01
1.818876576232326958e-01
1.822697745510126199e-01
1.822697745510126199e-01
1.700420328620557975e-01
1.700420328620557975e-01
1.700420328620557975e-01
1.773022544898739117e-01
1.773022544898739117e-01
1.715705005731753829e-01
1.715705005731753829e-01
1.715705005731753829e-01
1.750095529231945057e-01
1.750095529231945057e-01
1.658387466564768820e-01
1.658387466564768820e-01
1.658387466564768820e-01
1.784486052732136008e-01
1.784486052732136008e-01
1.612533435231180701e-01
1.612533435231180701e-01
1.612533435231180701e-01
1.761559037065341948e-01
1.761559037065341948e-01
1.658387466564768820e-01
1.658387466564768820e-01
1.658387466564768820e-01
1.792128391287733935e-01
1.792128391287733935e-01
1.776843714176538080e-01
1.776843714176538080e-01
1.776843714176538080e-01
1.574321742453190787e-01
1.574321742453190787e-01
1.604891096675582773e-01
1.604891096675582773e-01
1.604891096675582773e-01
1.673672143675964952e-01
1.673672143675964952e-01
1.673672143675964952e-01
1.673672143675964952e-01
1.673672143675964952e-01
1.639281620175773724e-01
1.639281620175773724e-01
1.704241497898356938e-01
1.704241497898356938e-01
1.704241497898356938e-01
1.650745128009170892e-01
1.650745128009170892e-01
1.719526175009552793e-01
1.719526175009552793e-01
1.719526175009552793e-01
1.608712265953381737e-01
1.608712265953381737e-01
1.654566297286969856e-01
1.654566297286969856e-01
1.654566297286969856e-01
1.543752388230798522e-01
1.543752388230798522e-01
1.666029805120366747e-01
1.666029805120366747e-01
1.666029805120366747e-01
1.635460450897974760e-01
1.635460450897974760e-01
1.715705005731753829e-01
1.715705005731753829e-01
1.715705005731753829e-01
1.608712265953381737e-01
1.608712265953381737e-01
1.700420328620557975e-01
1.700420328620557975e-01
1.700420328620557975e-01
1.608712265953381737e-01
1.608712265953381737e-01
1.692777990064959770e-01
1.692777990064959770e-01
1.692777990064959770e-01
1.658387466564768820e-01
1.658387466564768820e-01
1.708062667176155902e-01
1.708062667176155902e-01
1.708062667176155902e-01
1.696599159342759011e-01
1.696599159342759011e-01
1.643102789453572687e-01
1.643102789453572687e-01
1.643102789453572687e-01
1.746274359954146094e-01
1.746274359954146094e-01
1.639281620175773724e-01
1.639281620175773724e-01
1.639281620175773724e-01
1.597248758119984846e-01
1.597248758119984846e-01
1.643102789453572687e-01
1.643102789453572687e-01
1.643102789453572687e-01
1.845624761176920259e-01
1.845624761176920259e-01
1.792128391287733935e-01
1.792128391287733935e-01
1.792128391287733935e-01
1.860909438288116113e-01
1.860909438288116113e-01
1.914405808177302160e-01
1.914405808177302160e-01
1.914405808177302160e-01
1.925869316010699328e-01
1.925869316010699328e-01
1.914405808177302160e-01
1.914405808177302160e-01
1.914405808177302160e-01
1.895299961788307341e-01
1.895299961788307341e-01
2.021398547955674529e-01
2.021398547955674529e-01
2.021398547955674529e-01
2.120748949178448695e-01
2.120748949178448695e-01
2.094000764233855671e-01
2.094000764233855671e-01
2.094000764233855671e-01
2.216278181123423896e-01
2.216278181123423896e-01
2.181887657623232668e-01
2.181887657623232668e-01
2.197172334734428800e-01
2.197172334734428800e-01
2.197172334734428800e-01
2.285059228123805797e-01
2.285059228123805797e-01
2.323270920901795988e-01
2.323270920901795988e-01
2.323270920901795988e-01
2.525792892625143282e-01
2.525792892625143282e-01
2.590752770347726219e-01
2.590752770347726219e-01
2.590752770347726219e-01
2.525792892625143282e-01
2.525792892625143282e-01
2.651891478792510748e-01
2.651891478792510748e-01
2.651891478792510748e-01
2.728314864348490576e-01
2.728314864348490576e-01
2.846771111960260114e-01
2.846771111960260114e-01
2.846771111960260114e-01
2.915552158960642015e-01
2.915552158960642015e-01
2.854413450515858042e-01
2.854413450515858042e-01
2.854413450515858042e-01
2.892625143293847678e-01
2.892625143293847678e-01
2.988154375238822880e-01
2.988154375238822880e-01
2.988154375238822880e-01
2.999617883072220326e-01
2.999617883072220326e-01
3.129537638517386200e-01
3.129537638517386200e-01
3.129537638517386200e-01
3.137179977072984127e-01
3.137179977072984127e-01
3.202139854795567619e-01
3.202139854795567619e-01
3.202139854795567619e-01
3.213603362628964510e-01
3.213603362628964510e-01
3.213603362628964510e-01
3.213603362628964510e-01
3.213603362628964510e-01
3.301490256018341785e-01
3.301490256018341785e-01
3.458158196408100959e-01
3.458158196408100959e-01
3.458158196408100959e-01
3.446694688574704069e-01
3.446694688574704069e-01
3.511654566297287006e-01
3.511654566297287006e-01
3.511654566297287006e-01
3.511654566297287006e-01
3.511654566297287006e-01
3.523118074130683897e-01
3.523118074130683897e-01
3.523118074130683897e-01
3.630110813909055989e-01
3.630110813909055989e-01
3.549866259075277197e-01
3.549866259075277197e-01
3.549866259075277197e-01
3.691249522353840518e-01
3.691249522353840518e-01
3.763851738632021382e-01
3.763851738632021382e-01
3.763851738632021382e-01
3.794421092854413646e-01
3.794421092854413646e-01
3.874665647688192438e-01
3.874665647688192438e-01
3.874665647688192438e-01
3.752388230798624491e-01
3.752388230798624491e-01
3.855559801299197620e-01
3.855559801299197620e-01
3.855559801299197620e-01
3.779136415743217237e-01
3.779136415743217237e-01
3.886129155521589329e-01
3.886129155521589329e-01
3.886129155521589329e-01
3.912877340466182630e-01
3.912877340466182630e-01
3.844096293465800729e-01
3.844096293465800729e-01
3.844096293465800729e-01
3.993121895299961976e-01
3.993121895299961976e-01
3.901413832632785739e-01
3.901413832632785739e-01
3.901413832632785739e-01
4.023691249522353686e-01
4.023691249522353686e-01
3.874665647688192438e-01
3.874665647688192438e-01
3.874665647688192438e-01
3.867023309132594511e-01
3.867023309132594511e-01
3.863202139854795547e-01
3.863202139854795547e-01
3.863202139854795547e-01
4.027512418800152649e-01
4.027512418800152649e-01
3.970194879633167639e-01
3.970194879633167639e-01
3.970194879633167639e-01
3.889950324799388848e-01
3.889950324799388848e-01
3.870844478410393474e-01
3.870844478410393474e-01
3.870844478410393474e-01
3.863202139854795547e-01
3.863202139854795547e-01
3.889950324799388848e-01
3.889950324799388848e-01
3.889950324799388848e-01
3.924340848299579521e-01
3.924340848299579521e-01
3.844096293465800729e-01
3.844096293465800729e-01
3.844096293465800729e-01
3.954910202521971785e-01
3.954910202521971785e-01
3.847917462743599692e-01
3.847917462743599692e-01
3.847917462743599692e-01
3.809705769965609501e-01
3.809705769965609501e-01
3.916698509743981593e-01
3.916698509743981593e-01
3.916698509743981593e-01
3.916698509743981593e-01
3.916698509743981593e-01
3.725640045854031190e-01
3.725640045854031190e-01
3.725640045854031190e-01
3.867023309132594511e-01
3.867023309132594511e-01
3.847917462743599692e-01
3.847917462743599692e-01
3.847917462743599692e-01
3.832632785632403283e-01
3.832632785632403283e-01
3.729461215131830154e-01
3.729461215131830154e-01
3.729461215131830154e-01
3.729461215131830154e-01
3.729461215131830154e-01
3.672143675964845144e-01
3.672143675964845144e-01
3.672143675964845144e-01
3.805884600687810537e-01
3.805884600687810537e-01
3.729461215131830154e-01
3.729461215131830154e-01
3.729461215131830154e-01
3.775315246465418273e-01
3.775315246465418273e-01
3.591899121131066352e-01
3.591899121131066352e-01
3.591899121131066352e-01
3.603362628964463243e-01
3.603362628964463243e-01
3.588077951853266834e-01
3.588077951853266834e-01
3.588077951853266834e-01
3.695070691631639481e-01
3.695070691631639481e-01
3.645395491020252399e-01
3.645395491020252399e-01
3.645395491020252399e-01
3.465800534963698887e-01
3.465800534963698887e-01
3.488727550630492669e-01
3.488727550630492669e-01
3.488727550630492669e-01
3.465800534963698887e-01
3.465800534963698887e-01
3.530760412686281824e-01
3.530760412686281824e-01
3.530760412686281824e-01
3.500191058463890115e-01
3.500191058463890115e-01
3.412304165074512841e-01
3.412304165074512841e-01
3.412304165074512841e-01
3.366450133740924722e-01
3.366450133740924722e-01
3.297669086740542821e-01
3.297669086740542821e-01
3.297669086740542821e-01
3.442873519296905105e-01
3.442873519296905105e-01
3.374092472296522649e-01
3.374092472296522649e-01
3.374092472296522649e-01
3.320596102407336603e-01
3.320596102407336603e-01
3.324417271685135566e-01
3.324417271685135566e-01
3.267099732518150557e-01
3.267099732518150557e-01
3.267099732518150557e-01
3.274742071073748484e-01
3.274742071073748484e-01
3.290026748184944339e-01
3.290026748184944339e-01
3.290026748184944339e-01
3.194497516239969692e-01
3.194497516239969692e-01
3.183034008406572246e-01
3.183034008406572246e-01
3.183034008406572246e-01
3.083683607183798081e-01
3.083683607183798081e-01
3.003439052350019289e-01
3.003439052350019289e-01
3.003439052350019289e-01
2.927015666794038906e-01
2.927015666794038906e-01
2.965227359572029098e-01
2.965227359572029098e-01
2.965227359572029098e-01
2.927015666794038906e-01
2.927015666794038906e-01
2.869698127627053896e-01
2.869698127627053896e-01
2.869698127627053896e-01
2.896446312571647197e-01
2.896446312571647197e-01
2.923194497516239942e-01
2.923194497516239942e-01
2.923194497516239942e-01
2.827665265571264741e-01
2.827665265571264741e-01
2.751241880015284913e-01
2.751241880015284913e-01
2.751241880015284913e-01
2.800917080626671996e-01
2.800917080626671996e-01
2.793274742071073513e-01
2.793274742071073513e-01
2.793274742071073513e-01
2.724493695070691612e-01
2.724493695070691612e-01
2.564004585403133474e-01
2.564004585403133474e-01
2.564004585403133474e-01
2.609858616736721593e-01
2.609858616736721593e-01
2.583110431792128292e-01
2.583110431792128292e-01
2.583110431792128292e-01
2.586931601069927256e-01
2.586931601069927256e-01
2.544898739014138100e-01
2.544898739014138100e-01
2.544898739014138100e-01
2.441727168513565249e-01
2.441727168513565249e-01
2.403515475735575058e-01
2.403515475735575058e-01
2.403515475735575058e-01
2.418800152846771190e-01
2.418800152846771190e-01
2.395873137179977130e-01
2.395873137179977130e-01
2.395873137179977130e-01
2.357661444401986939e-01
2.357661444401986939e-01
2.414978983568972226e-01
2.414978983568972226e-01
2.414978983568972226e-01
2.315628582346198061e-01
2.315628582346198061e-01
2.342376767290791084e-01
2.342376767290791084e-01
2.342376767290791084e-01
2.307986243790599856e-01
2.307986243790599856e-01
2.193351165456629837e-01
2.193351165456629837e-01
2.193351165456629837e-01
2.231562858234619751e-01
2.231562858234619751e-01
2.143675964845242754e-01
2.143675964845242754e-01
2.143675964845242754e-01
2.055789071455865480e-01
2.055789071455865480e-01
2.155139472678639645e-01
2.155139472678639645e-01
2.155139472678639645e-01
2.158960641956438609e-01
2.158960641956438609e-01
2.074894917844860576e-01
2.074894917844860576e-01
2.074894917844860576e-01
2.009935040122277361e-01
2.009935040122277361e-01
2.109285441345051526e-01
2.109285441345051526e-01
2.109285441345051526e-01
2.067252579289262648e-01
2.067252579289262648e-01
2.113106610622850490e-01
2.113106610622850490e-01
2.113106610622850490e-01
1.990829193733282265e-01
1.990829193733282265e-01
2.116927779900649731e-01
2.116927779900649731e-01
2.116927779900649731e-01
2.105464272067252562e-01
2.105464272067252562e-01
1.887657623232709136e-01
1.887657623232709136e-01
1.887657623232709136e-01
2.059610240733664444e-01
2.059610240733664444e-01
1.990829193733282265e-01
1.990829193733282265e-01
1.990829193733282265e-01
1.952617500955292351e-01
1.952617500955292351e-01
1.956438670233091315e-01
1.956438670233091315e-01
1.956438670233091315e-01
1.914405808177302160e-01
1.914405808177302160e-01
1.929690485288498292e-01
1.929690485288498292e-01
1.929690485288498292e-01
2.006113870844478397e-01
2.006113870844478397e-01
2.017577378677875566e-01
2.017577378677875566e-01
2.017577378677875566e-01
1.944975162399694424e-01
1.944975162399694424e-01
1.922048146732900364e-01
1.922048146732900364e-01
1.922048146732900364e-01
2.002292701566679434e-01
2.002292701566679434e-01
1.944975162399694424e-01
1.944975162399694424e-01
1.944975162399694424e-01
1.914405808177302160e-01
1.914405808177302160e-01
1.899121131066106305e-01
1.899121131066106305e-01
1.899121131066106305e-01
1.964081008788689242e-01
1.964081008788689242e-01
1.952617500955292351e-01
1.952617500955292351e-01
1.952617500955292351e-01
1.811234237676729031e-01
1.811234237676729031e-01
1.792128391287733935e-01
1.792128391287733935e-01
1.792128391287733935e-01
1.868551776843714041e-01
1.868551776843714041e-01
1.757737867787542985e-01
1.757737867787542985e-01
1.757737867787542985e-01
1.925869316010699328e-01
1.925869316010699328e-01
1.845624761176920259e-01
1.845624761176920259e-01
1.845624761176920259e-01
1.818876576232326958e-01
1.818876576232326958e-01
1.769201375620939876e-01
1.769201375620939876e-01
1.769201375620939876e-01
1.803591899121131104e-01
1.803591899121131104e-01
1.891478792510508100e-01
1.891478792510508100e-01
1.891478792510508100e-01
1.822697745510126199e-01
1.822697745510126199e-01
1.776843714176538080e-01
1.776843714176538080e-01
1.776843714176538080e-01
1.811234237676729031e-01
1.811234237676729031e-01
1.746274359954146094e-01
1.746274359954146094e-01
1.746274359954146094e-01
1.780664883454337044e-01
1.780664883454337044e-01
1.815055406954527994e-01
1.815055406954527994e-01
1.815055406954527994e-01
1.761559037065341948e-01
1.761559037065341948e-01
1.815055406954527994e-01
1.815055406954527994e-01
1.799770729843332140e-01
1.799770729843332140e-01
1.799770729843332140e-01
1.887657623232709136e-01
1.887657623232709136e-01
1.631639281620175796e-01
1.631639281620175796e-01
1.631639281620175796e-01
1.715705005731753829e-01
1.715705005731753829e-01
1.815055406954527994e-01
1.815055406954527994e-01
1.815055406954527994e-01
1.757737867787542985e-01
1.757737867787542985e-01
1.696599159342759011e-01
1.696599159342759011e-01
1.696599159342759011e-01
1.822697745510126199e-01
1.822697745510126199e-01
1.738632021398547889e-01
1.738632021398547889e-01
1.738632021398547889e-01
1.662208635842567783e-01
1.662208635842567783e-01
1.601069927397783810e-01
1.601069927397783810e-01
1.601069927397783810e-01
1.597248758119984846e-01
1.597248758119984846e-01
1.666029805120366747e-01
1.666029805120366747e-01
1.666029805120366747e-01
1.650745128009170892e-01
1.650745128009170892e-01
1.654566297286969856e-01
1.654566297286969856e-01
1.654566297286969856e-01
1.658387466564768820e-01
1.658387466564768820e-01
1.601069927397783810e-01
1.601069927397783810e-01
1.601069927397783810e-01
1.517004203286205499e-01
1.517004203286205499e-01
1.708062667176155902e-01
1.708062667176155902e-01
1.708062667176155902e-01
1.574321742453190787e-01
1.574321742453190787e-01
1.646923958731371929e-01
1.646923958731371929e-01
1.646923958731371929e-01
1.601069927397783810e-01
1.601069927397783810e-01
1.490256018341612476e-01
1.490256018341612476e-01
1.490256018341612476e-01
1.459686664119220489e-01
1.459686664119220489e-01
1.601069927397783810e-01
1.601069927397783810e-01
1.601069927397783810e-01
1.601069927397783810e-01
1.601069927397783810e-01
1.463507833397019453e-01
1.463507833397019453e-01
1.463507833397019453e-01
1.547573557508597764e-01
1.547573557508597764e-01
1.387084447841039347e-01
1.387084447841039347e-01
1.387084447841039347e-01
1.356515093618647361e-01
1.356515093618647361e-01
1.440580817730225394e-01
1.440580817730225394e-01
1.440580817730225394e-01
1.348872755063049156e-01
1.348872755063049156e-01
1.345051585785250192e-01
1.345051585785250192e-01
1.345051585785250192e-01
1.367978601452044252e-01
1.367978601452044252e-01
1.452044325563622562e-01
1.452044325563622562e-01
1.452044325563622562e-01
1.306839893007260278e-01
1.306839893007260278e-01
1.367978601452044252e-01
1.367978601452044252e-01
1.367978601452044252e-01
1.452044325563622562e-01
1.452044325563622562e-01
1.280091708062667255e-01
1.280091708062667255e-01
1.280091708062667255e-01
1.199847153228888047e-01
1.199847153228888047e-01
1.260985861673672159e-01
1.260985861673672159e-01
1.260985861673672159e-01
1.322124570118456133e-01
1.322124570118456133e-01
1.310661062285059242e-01
1.310661062285059242e-01
1.310661062285059242e-01
1.360336262896446324e-01
1.360336262896446324e-01
1.295376385173863110e-01
1.295376385173863110e-01
1.295376385173863110e-01
1.253343523118074232e-01
1.253343523118074232e-01
1.329766908674054338e-01
1.329766908674054338e-01
1.329766908674054338e-01
1.196025983951089083e-01
1.196025983951089083e-01
1.245701184562476166e-01
1.245701184562476166e-01
1.245701184562476166e-01
1.211310661062285077e-01
1.211310661062285077e-01
1.303018723729461315e-01
1.303018723729461315e-01
1.303018723729461315e-01
1.138708444784103935e-01
1.138708444784103935e-01
1.104317921283912846e-01
1.104317921283912846e-01
1.104317921283912846e-01
1.180741306839892951e-01
1.180741306839892951e-01
1.153993121895299928e-01
1.153993121895299928e-01
1.153993121895299928e-01
1.127244936950706905e-01
1.127244936950706905e-01
1.134887275506304971e-01
1.134887275506304971e-01
1.134887275506304971e-01
1.196025983951089083e-01
1.196025983951089083e-01
1.218952999617883004e-01
1.218952999617883004e-01
1.218952999617883004e-01
1.142529614061902898e-01
1.142529614061902898e-01
1.138708444784103935e-01
1.138708444784103935e-01
1.138708444784103935e-01
1.146350783339702001e-01
1.146350783339702001e-01
1.089033244172716852e-01
1.089033244172716852e-01
1.089033244172716852e-01
1.024073366450133776e-01
1.024073366450133776e-01
1.077569736339319822e-01
1.077569736339319822e-01
1.077569736339319822e-01
9.476499808941536707e-02
9.476499808941536707e-02
1.016431027894535710e-01
1.016431027894535710e-01
1.016431027894535710e-01
9.514711501719526343e-02
9.514711501719526343e-02
8.788689338937714923e-02
8.788689338937714923e-02
8.788689338937714923e-02
1.024073366450133776e-01
1.024073366450133776e-01
9.629346580053496640e-02
9.629346580053496640e-02
9.629346580053496640e-02
9.896828429499426871e-02
9.896828429499426871e-02
9.705769965609475913e-02
9.705769965609475913e-02
9.705769965609475913e-02
9.591134887275505616e-02
9.591134887275505616e-02
8.291937332823844098e-02
8.291937332823844098e-02
8.291937332823844098e-02
8.444784103935804032e-02
8.444784103935804032e-02
8.865112724493695584e-02
8.865112724493695584e-02
8.865112724493695584e-02
8.062667176155903503e-02
8.062667176155903503e-02
8.444784103935804032e-02
8.444784103935804032e-02
8.444784103935804032e-02
8.291937332823844098e-02
8.291937332823844098e-02
8.750477646159725287e-02
8.750477646159725287e-02
8.750477646159725287e-02
8.635842567825754990e-02
8.635842567825754990e-02
8.215513947267863437e-02
8.215513947267863437e-02
9.323653037829575385e-02
9.323653037829575385e-02
9.323653037829575385e-02
8.750477646159725287e-02
8.750477646159725287e-02
8.215513947267863437e-02
8.215513947267863437e-02
8.215513947267863437e-02
8.139090561711884164e-02
8.139090561711884164e-02
9.094382881161634791e-02
9.094382881161634791e-02
9.094382881161634791e-02
8.139090561711884164e-02
8.139090561711884164e-02
9.400076423385556046e-02
9.400076423385556046e-02
9.400076423385556046e-02
8.062667176155903503e-02
8.062667176155903503e-02
9.476499808941536707e-02
9.476499808941536707e-02
9.476499808941536707e-02
1.024073366450133776e-01
1.024073366450133776e-01
9.247229652273596112e-02
9.247229652273596112e-02
9.247229652273596112e-02
9.629346580053496640e-02
9.629346580053496640e-02
9.438288116163545682e-02
9.438288116163545682e-02
9.438288116163545682e-02
9.820405043943446211e-02
9.820405043943446211e-02
1.161635460450897994e-01
1.161635460450897994e-01
1.161635460450897994e-01
1.169277799006495921e-01
1.169277799006495921e-01
1.153993121895299928e-01
1.153993121895299928e-01
1.153993121895299928e-01
1.138708444784103935e-01
1.138708444784103935e-01
1.241880015284677063e-01
1.241880015284677063e-01
1.241880015284677063e-01
1.280091708062667255e-01
1.280091708062667255e-01
1.333588077951853301e-01
1.333588077951853301e-01
1.333588077951853301e-01
1.513183034008406536e-01
1.513183034008406536e-01
1.486434849063813513e-01
1.486434849063813513e-01
1.486434849063813513e-01
1.505540695452808608e-01
1.505540695452808608e-01
1.536110049675200595e-01
1.536110049675200595e-01
1.536110049675200595e-01
1.623996943064577869e-01
1.623996943064577869e-01
1.769201375620939876e-01
1.769201375620939876e-01
1.769201375620939876e-01
1.780664883454337044e-01
1.780664883454337044e-01
1.960259839510890278e-01
1.960259839510890278e-01
1.960259839510890278e-01
1.830340084065724127e-01
1.830340084065724127e-01
2.021398547955674529e-01
2.021398547955674529e-01
2.021398547955674529e-01
2.067252579289262648e-01
2.067252579289262648e-01
2.055789071455865480e-01
2.055789071455865480e-01
2.055789071455865480e-01
2.170424149789835777e-01
2.170424149789835777e-01
2.235384027512418714e-01
2.235384027512418714e-01
2.235384027512418714e-01
2.430263660680168081e-01
2.430263660680168081e-01
2.487581199847153091e-01
2.487581199847153091e-01
2.487581199847153091e-01
2.392051967902178167e-01
2.392051967902178167e-01
2.502865876958349500e-01
2.502865876958349500e-01
2.502865876958349500e-01
2.544898739014138100e-01
2.544898739014138100e-01
2.571646923958731401e-01
2.571646923958731401e-01
2.571646923958731401e-01
2.720672525792892649e-01
2.720672525792892649e-01
2.747420710737485394e-01
2.747420710737485394e-01
2.747420710737485394e-01
2.751241880015284913e-01
2.751241880015284913e-01
2.888803974016048715e-01
2.888803974016048715e-01
2.888803974016048715e-01
2.877340466182651824e-01
2.877340466182651824e-01
2.927015666794038906e-01
2.927015666794038906e-01
2.927015666794038906e-01
3.007260221627818253e-01
3.007260221627818253e-01
3.064577760794803263e-01
3.064577760794803263e-01
3.064577760794803263e-01
3.091325945739396008e-01
3.091325945739396008e-01
3.102789453572793454e-01
3.102789453572793454e-01
3.102789453572793454e-01
3.095147115017195527e-01
3.095147115017195527e-01
3.179212839128773282e-01
3.179212839128773282e-01
3.179212839128773282e-01
3.255636224684753666e-01
3.255636224684753666e-01
3.198318685517768656e-01
3.198318685517768656e-01
3.198318685517768656e-01
3.320596102407336603e-01
3.320596102407336603e-01
3.244172716851356775e-01
3.244172716851356775e-01
3.244172716851356775e-01
3.339701948796331421e-01
3.339701948796331421e-01
3.412304165074512841e-01
3.412304165074512841e-01
3.412304165074512841e-01
3.309132594573939712e-01
3.309132594573939712e-01
3.389377149407718504e-01
3.389377149407718504e-01
3.389377149407718504e-01
3.458158196408100959e-01
3.458158196408100959e-01
3.427588842185708695e-01
3.427588842185708695e-01
3.427588842185708695e-01
3.507833397019488042e-01
3.507833397019488042e-01
3.553687428353076161e-01
3.553687428353076161e-01
3.553687428353076161e-01
3.442873519296905105e-01
3.442873519296905105e-01
3.534581581964080788e-01
3.534581581964080788e-01
3.534581581964080788e-01
3.477264042797095778e-01
3.477264042797095778e-01
3.484906381352693705e-01
3.484906381352693705e-01
3.484906381352693705e-01
3.591899121131066352e-01
3.591899121131066352e-01
3.507833397019488042e-01
3.507833397019488042e-01
3.507833397019488042e-01
3.526939243408482860e-01
3.526939243408482860e-01
3.500191058463890115e-01
3.500191058463890115e-01
3.500191058463890115e-01
3.572793274742070979e-01
3.572793274742070979e-01
3.465800534963698887e-01
3.465800534963698887e-01
3.465800534963698887e-01
3.492548719908292187e-01
3.492548719908292187e-01
3.488727550630492669e-01
3.488727550630492669e-01
3.488727550630492669e-01
3.366450133740924722e-01
3.366450133740924722e-01
3.416125334352311804e-01
3.416125334352311804e-01
3.416125334352311804e-01
3.465800534963698887e-01
3.465800534963698887e-01
3.404661826518914913e-01
3.404661826518914913e-01
3.427588842185708695e-01
3.427588842185708695e-01
3.427588842185708695e-01
3.461979365685899923e-01
3.461979365685899923e-01
3.450515857852503032e-01
3.450515857852503032e-01
3.450515857852503032e-01
3.393198318685518022e-01
3.393198318685518022e-01
3.450515857852503032e-01
3.450515857852503032e-01
3.450515857852503032e-01
3.431410011463507659e-01
3.431410011463507659e-01
3.393198318685518022e-01
3.393198318685518022e-01
3.393198318685518022e-01
3.232709209017959329e-01
3.232709209017959329e-01
3.339701948796331421e-01
3.339701948796331421e-01
3.339701948796331421e-01
3.240351547573557256e-01
3.240351547573557256e-01
3.259457393962552629e-01
3.259457393962552629e-01
3.259457393962552629e-01
3.309132594573939712e-01
3.309132594573939712e-01
3.183034008406572246e-01
3.183034008406572246e-01
3.183034008406572246e-01
3.144822315628582610e-01
3.144822315628582610e-01
3.183034008406572246e-01
3.183034008406572246e-01
3.183034008406572246e-01
3.282384409629346411e-01
3.282384409629346411e-01
3.121895299961788273e-01
3.121895299961788273e-01
3.121895299961788273e-01
3.064577760794803263e-01
3.064577760794803263e-01
3.186855177684371210e-01
3.186855177684371210e-01
3.186855177684371210e-01
3.121895299961788273e-01
3.121895299961788273e-01
2.965227359572029098e-01
2.965227359572029098e-01
2.965227359572029098e-01
3.087504776461597045e-01
3.087504776461597045e-01
3.087504776461597045e-01
3.087504776461597045e-01
3.087504776461597045e-01
2.991975544516621843e-01
2.991975544516621843e-01
2.999617883072220326e-01
2.999617883072220326e-01
2.999617883072220326e-01
2.820022927015666814e-01
2.820022927015666814e-01
2.839128773404661632e-01
2.839128773404661632e-01
2.839128773404661632e-01
2.835307604126862668e-01
2.835307604126862668e-01
2.873519296904852860e-01
2.873519296904852860e-01
2.873519296904852860e-01
2.858234619793657005e-01
2.858234619793657005e-01
2.739778372181887467e-01
2.739778372181887467e-01
2.739778372181887467e-01
2.777990064959877659e-01
2.777990064959877659e-01
2.632785632403515375e-01
2.632785632403515375e-01
2.632785632403515375e-01
2.674818494459304530e-01
2.674818494459304530e-01
2.682460833014902457e-01
2.682460833014902457e-01
2.682460833014902457e-01
2.533435231180741209e-01
2.533435231180741209e-01
2.499044707680550259e-01
2.499044707680550259e-01
2.499044707680550259e-01
2.472296522735957236e-01
2.472296522735957236e-01
2.422621322124570153e-01
2.422621322124570153e-01
2.422621322124570153e-01
2.403515475735575058e-01
2.403515475735575058e-01
2.453190676346962140e-01
2.453190676346962140e-01
2.453190676346962140e-01
2.453190676346962140e-01
2.453190676346962140e-01
2.285059228123805797e-01
2.285059228123805797e-01
2.285059228123805797e-01
2.285059228123805797e-01
2.285059228123805797e-01
2.288880397401604760e-01
2.288880397401604760e-01
2.288880397401604760e-01
2.166602980512036813e-01
2.166602980512036813e-01
2.170424149789835777e-01
2.170424149789835777e-01
2.170424149789835777e-01
2.288880397401604760e-01
2.288880397401604760e-01
2.105464272067252562e-01
2.105464272067252562e-01
2.105464272067252562e-01
2.120748949178448695e-01
2.120748949178448695e-01
2.059610240733664444e-01
2.059610240733664444e-01
2.059610240733664444e-01
1.987008024455483302e-01
1.987008024455483302e-01
1.948796331677493388e-01
1.948796331677493388e-01
1.948796331677493388e-01
1.979365685899885374e-01
1.979365685899885374e-01
2.059610240733664444e-01
2.059610240733664444e-01
2.059610240733664444e-01
1.960259839510890278e-01
1.960259839510890278e-01
1.857088269010317150e-01
1.857088269010317150e-01
1.857088269010317150e-01
1.837982422621322054e-01
1.837982422621322054e-01
1.876194115399312246e-01
1.876194115399312246e-01
1.876194115399312246e-01
1.948796331677493388e-01
1.948796331677493388e-01
1.868551776843714041e-01
1.868551776843714041e-01
1.868551776843714041e-01
1.769201375620939876e-01
1.769201375620939876e-01
1.715705005731753829e-01
1.715705005731753829e-01
1.715705005731753829e-01
1.841803591899121018e-01
1.841803591899121018e-01
1.666029805120366747e-01
1.666029805120366747e-01
1.666029805120366747e-01
1.673672143675964952e-01
1.673672143675964952e-01
1.788307222009934971e-01
1.788307222009934971e-01
1.788307222009934971e-01
1.734810852120748925e-01
1.734810852120748925e-01
1.723347344287352034e-01
1.723347344287352034e-01
1.723347344287352034e-01
1.757737867787542985e-01
1.757737867787542985e-01
1.669850974398165711e-01
1.669850974398165711e-01
1.669850974398165711e-01
1.623996943064577869e-01
1.623996943064577869e-01
1.620175773786778628e-01
1.620175773786778628e-01
1.620175773786778628e-01
1.623996943064577869e-01
1.623996943064577869e-01
1.578142911730989750e-01
1.578142911730989750e-01
1.578142911730989750e-01
1.708062667176155902e-01
1.708062667176155902e-01
1.597248758119984846e-01
1.597248758119984846e-01
1.597248758119984846e-01
1.566679403897592582e-01
1.566679403897592582e-01
1.608712265953381737e-01
1.608712265953381737e-01
1.608712265953381737e-01
1.566679403897592582e-01
1.566679403897592582e-01
1.520825372564004463e-01
1.520825372564004463e-01
1.524646541841803704e-01
1.524646541841803704e-01
1.524646541841803704e-01
1.543752388230798522e-01
1.543752388230798522e-01
1.654566297286969856e-01
1.654566297286969856e-01
1.654566297286969856e-01
1.501719526175009645e-01
1.501719526175009645e-01
1.601069927397783810e-01
1.601069927397783810e-01
1.601069927397783810e-01
1.520825372564004463e-01
1.520825372564004463e-01
1.505540695452808608e-01
1.505540695452808608e-01
1.505540695452808608e-01
1.627818112342376833e-01
1.627818112342376833e-01
1.612533435231180701e-01
1.612533435231180701e-01
1.612533435231180701e-01
1.513183034008406536e-01
1.513183034008406536e-01
1.532288880397401631e-01
1.532288880397401631e-01
1.532288880397401631e-01
1.513183034008406536e-01
1.513183034008406536e-01
1.467329002674818417e-01
1.467329002674818417e-01
1.467329002674818417e-01
1.559037065341994654e-01
1.559037065341994654e-01
1.517004203286205499e-01
1.517004203286205499e-01
1.517004203286205499e-01
1.402369124952235480e-01
1.402369124952235480e-01
1.585785250286587678e-01
1.585785250286587678e-01
1.585785250286587678e-01
1.578142911730989750e-01
1.578142911730989750e-01
1.578142911730989750e-01
1.578142911730989750e-01
1.578142911730989750e-01
1.436759648452426430e-01
1.436759648452426430e-01
1.559037065341994654e-01
1.559037065341994654e-01
1.559037065341994654e-01
1.505540695452808608e-01
1.505540695452808608e-01
1.467329002674818417e-01
1.467329002674818417e-01
1.467329002674818417e-01
1.604891096675582773e-01
1.604891096675582773e-01
1.452044325563622562e-01
1.452044325563622562e-01
1.452044325563622562e-01
1.551394726786396727e-01
1.551394726786396727e-01
1.513183034008406536e-01
1.513183034008406536e-01
1.513183034008406536e-01
1.394726786396637275e-01
1.394726786396637275e-01
1.364157432174245288e-01
1.364157432174245288e-01
1.364157432174245288e-01
1.398547955674436516e-01
1.398547955674436516e-01
1.497898356897210681e-01
1.497898356897210681e-01
1.497898356897210681e-01
1.432938479174627466e-01
1.432938479174627466e-01
1.364157432174245288e-01
1.364157432174245288e-01
1.364157432174245288e-01
1.356515093618647361e-01
1.356515093618647361e-01
1.429117309896828503e-01
1.429117309896828503e-01
1.429117309896828503e-01
1.402369124952235480e-01
1.402369124952235480e-01
1.406190294230034443e-01
1.406190294230034443e-01
1.406190294230034443e-01
1.452044325563622562e-01
1.452044325563622562e-01
1.333588077951853301e-01
1.333588077951853301e-01
1.333588077951853301e-01
1.398547955674436516e-01
1.398547955674436516e-01
1.452044325563622562e-01
1.452044325563622562e-01
1.452044325563622562e-01
1.360336262896446324e-01
1.360336262896446324e-01
1.348872755063049156e-01
1.348872755063049156e-01
1.348872755063049156e-01
1.325945739396255374e-01
1.325945739396255374e-01
1.253343523118074232e-01
1.253343523118074232e-01
1.253343523118074232e-01
1.287734046618265182e-01
1.287734046618265182e-01
1.306839893007260278e-01
1.306839893007260278e-01
1.306839893007260278e-01
1.329766908674054338e-01
1.329766908674054338e-01
1.314482231562858205e-01
1.314482231562858205e-01
1.314482231562858205e-01
1.238058846006878100e-01
1.238058846006878100e-01
1.352693924340848397e-01
1.352693924340848397e-01
1.352693924340848397e-01
1.345051585785250192e-01
1.345051585785250192e-01
1.291555215896064146e-01
1.291555215896064146e-01
1.291555215896064146e-01
1.153993121895299928e-01
1.153993121895299928e-01
1.222774168895682106e-01
1.222774168895682106e-01
1.222774168895682106e-01
1.310661062285059242e-01
1.310661062285059242e-01
1.303018723729461315e-01
1.303018723729461315e-01
1.303018723729461315e-01
1.287734046618265182e-01
1.287734046618265182e-01
1.211310661062285077e-01
1.211310661062285077e-01
1.211310661062285077e-01
1.123423767672907941e-01
1.123423767672907941e-01
1.218952999617883004e-01
1.218952999617883004e-01
1.218952999617883004e-01
1.245701184562476166e-01
1.245701184562476166e-01
1.077569736339319822e-01
1.077569736339319822e-01
1.077569736339319822e-01
1.077569736339319822e-01
1.077569736339319822e-01
1.092854413450515816e-01
1.092854413450515816e-01
1.092854413450515816e-01
1.153993121895299928e-01
1.153993121895299928e-01
1.066106228505922793e-01
1.066106228505922793e-01
1.066106228505922793e-01
1.169277799006495921e-01
1.169277799006495921e-01
1.115781429117309875e-01
1.115781429117309875e-01
1.115781429117309875e-01
1.169277799006495921e-01
1.169277799006495921e-01
1.016431027894535710e-01
1.016431027894535710e-01
1.016431027894535710e-01
1.108139090561711948e-01
1.108139090561711948e-01
1.077569736339319822e-01
1.077569736339319822e-01
1.077569736339319822e-01
1.211310661062285077e-01
1.211310661062285077e-01
1.039358043561329770e-01
1.039358043561329770e-01
1.039358043561329770e-01
1.024073366450133776e-01
1.024073366450133776e-01
1.066106228505922793e-01
1.066106228505922793e-01
1.066106228505922793e-01
1.058463889950324865e-01
1.058463889950324865e-01
9.514711501719526343e-02
9.514711501719526343e-02
9.514711501719526343e-02
9.858616736721437235e-02
9.858616736721437235e-02
1.008788689338937783e-01
1.008788689338937783e-01
1.008788689338937783e-01
1.081390905617118786e-01
1.081390905617118786e-01
1.047000382116927836e-01
1.047000382116927836e-01
9.285441345051585749e-02
9.285441345051585749e-02
9.285441345051585749e-02
1.062285059228123829e-01
1.062285059228123829e-01
9.438288116163545682e-02
9.438288116163545682e-02
9.438288116163545682e-02
1.031715705005731704e-01
1.031715705005731704e-01
8.941536110049674857e-02
8.941536110049674857e-02
8.941536110049674857e-02
9.514711501719526343e-02
9.514711501719526343e-02
1.008788689338937783e-01
1.008788689338937783e-01
1.008788689338937783e-01
9.858616736721437235e-02
9.858616736721437235e-02
8.406572411157814395e-02
8.406572411157814395e-02
8.406572411157814395e-02
9.094382881161634791e-02
9.094382881161634791e-02
9.935040122277416508e-02
9.935040122277416508e-02
9.935040122277416508e-02
9.705769965609475913e-02
9.705769965609475913e-02
8.597630875047763965e-02
8.597630875047763965e-02
8.597630875047763965e-02
8.788689338937714923e-02
8.788689338937714923e-02
8.482995796713795056e-02
8.482995796713795056e-02
8.482995796713795056e-02
9.017959495605655518e-02
9.017959495605655518e-02
7.948032097821933206e-02
7.948032097821933206e-02
7.948032097821933206e-02
8.177302254489873801e-02
8.177302254489873801e-02
8.903324417271685220e-02
8.903324417271685220e-02
8.903324417271685220e-02
7.833397019487962909e-02
7.833397019487962909e-02
9.896828429499426871e-02
9.896828429499426871e-02
9.896828429499426871e-02
9.705769965609475913e-02
9.705769965609475913e-02
7.795185326709973272e-02
7.795185326709973272e-02
7.795185326709973272e-02
9.591134887275505616e-02
9.591134887275505616e-02
9.170806266717615451e-02
9.170806266717615451e-02
9.170806266717615451e-02
9.056171188383645154e-02
9.056171188383645154e-02
8.903324417271685220e-02
8.903324417271685220e-02
8.903324417271685220e-02
8.139090561711884164e-02
8.139090561711884164e-02
9.896828429499426871e-02
9.896828429499426871e-02
9.896828429499426871e-02
9.056171188383645154e-02
9.056171188383645154e-02
7.909820405043943570e-02
7.909820405043943570e-02
7.909820405043943570e-02
9.400076423385556046e-02
9.400076423385556046e-02
8.979747802827665881e-02
8.979747802827665881e-02
8.979747802827665881e-02
9.591134887275505616e-02
9.591134887275505616e-02
8.521207489491784692e-02
8.521207489491784692e-02
8.521207489491784692e-02
8.750477646159725287e-02
8.750477646159725287e-02
1.073748567061520859e-01
1.073748567061520859e-01
1.073748567061520859e-01
1.008788689338937783e-01
1.008788689338937783e-01
1.024073366450133776e-01
1.024073366450133776e-01
1.024073366450133776e-01
1.047000382116927836e-01
1.047000382116927836e-01
1.047000382116927836e-01
1.047000382116927836e-01
1.047000382116927836e-01
1.180741306839892951e-01
1.180741306839892951e-01
1.295376385173863110e-01
1.295376385173863110e-01
1.295376385173863110e-01
1.150171952617500964e-01
1.150171952617500964e-01
1.241880015284677063e-01
1.241880015284677063e-01
1.241880015284677063e-01
1.440580817730225394e-01
1.440580817730225394e-01
1.425296140619029539e-01
1.425296140619029539e-01
1.425296140619029539e-01
1.471150171952617380e-01
1.471150171952617380e-01
1.448223156285823598e-01
1.448223156285823598e-01
1.448223156285823598e-01
1.497898356897210681e-01
1.497898356897210681e-01
1.696599159342759011e-01
1.696599159342759011e-01
1.696599159342759011e-01
1.692777990064959770e-01
1.692777990064959770e-01
1.872372946121513282e-01
1.872372946121513282e-01
1.872372946121513282e-01
1.883836453954910173e-01
1.883836453954910173e-01
2.044325563622468589e-01
2.044325563622468589e-01
2.044325563622468589e-01
2.013756209400076325e-01
2.013756209400076325e-01
2.158960641956438609e-01
2.158960641956438609e-01
2.158960641956438609e-01
2.074894917844860576e-01
2.074894917844860576e-01
2.246847535345815883e-01
2.246847535345815883e-01
2.246847535345815883e-01
2.338555598012991843e-01
2.338555598012991843e-01
2.350019105846389011e-01
2.350019105846389011e-01
2.350019105846389011e-01
2.464654184180359309e-01
2.464654184180359309e-01
2.411157814291172985e-01
2.411157814291172985e-01
2.411157814291172985e-01
2.495223538402751295e-01
2.495223538402751295e-01
2.541077569736339137e-01
2.541077569736339137e-01
2.541077569736339137e-01
2.617500955292319520e-01
2.617500955292319520e-01
2.632785632403515375e-01
2.632785632403515375e-01
2.632785632403515375e-01
2.846771111960260114e-01
2.846771111960260114e-01
2.854413450515858042e-01
2.854413450515858042e-01
2.854413450515858042e-01
2.927015666794038906e-01
2.927015666794038906e-01
2.927015666794038906e-01
2.927015666794038906e-01
2.927015666794038906e-01
3.037829575850209962e-01
3.037829575850209962e-01
3.102789453572793454e-01
3.102789453572793454e-01
3.102789453572793454e-01
2.988154375238822880e-01
2.988154375238822880e-01
3.152464654184180537e-01
3.152464654184180537e-01
3.152464654184180537e-01
3.270920901795949520e-01
3.270920901795949520e-01
3.198318685517768656e-01
3.198318685517768656e-01
3.198318685517768656e-01
3.160106992739778464e-01
3.160106992739778464e-01
3.305311425296140748e-01
3.305311425296140748e-01
3.305311425296140748e-01
3.400840657241115950e-01
3.400840657241115950e-01
3.397019487963316986e-01
3.397019487963316986e-01
3.454337027130301996e-01
3.454337027130301996e-01
3.454337027130301996e-01
3.412304165074512841e-01
3.412304165074512841e-01
3.397019487963316986e-01
3.397019487963316986e-01
3.397019487963316986e-01
3.504012227741689078e-01
3.504012227741689078e-01
3.534581581964080788e-01
3.534581581964080788e-01
3.534581581964080788e-01
3.469621704241497850e-01
3.469621704241497850e-01
3.568972105464272015e-01
3.568972105464272015e-01
3.568972105464272015e-01
3.534581581964080788e-01
3.534581581964080788e-01
3.672143675964845144e-01
3.672143675964845144e-01
3.672143675964845144e-01
3.664501337409247217e-01
3.664501337409247217e-01
3.580435613297668906e-01
3.580435613297668906e-01
3.580435613297668906e-01
3.630110813909055989e-01
3.630110813909055989e-01
3.595720290408865316e-01
3.595720290408865316e-01
3.595720290408865316e-01
3.660680168131448253e-01
3.660680168131448253e-01
3.637753152464653916e-01
3.637753152464653916e-01
3.637753152464653916e-01
3.622468475353458062e-01
3.622468475353458062e-01
3.656858998853649290e-01
3.656858998853649290e-01
3.656858998853649290e-01
3.607183798242262207e-01
3.607183798242262207e-01
3.679786014520443072e-01
3.679786014520443072e-01
3.679786014520443072e-01
3.706534199465036372e-01
3.706534199465036372e-01
3.695070691631639481e-01
3.695070691631639481e-01
3.695070691631639481e-01
3.591899121131066352e-01
3.591899121131066352e-01
3.622468475353458062e-01
3.622468475353458062e-01
3.622468475353458062e-01
3.515475735575085969e-01
3.515475735575085969e-01
3.611004967520061171e-01
3.611004967520061171e-01
3.611004967520061171e-01
3.526939243408482860e-01
3.526939243408482860e-01
3.504012227741689078e-01
3.504012227741689078e-01
3.504012227741689078e-01
3.622468475353458062e-01
3.622468475353458062e-01
3.549866259075277197e-01
3.549866259075277197e-01
3.549866259075277197e-01
3.546045089797478234e-01
3.546045089797478234e-01
3.454337027130301996e-01
3.454337027130301996e-01
3.454337027130301996e-01
3.546045089797478234e-01
3.546045089797478234e-01
3.538402751241879751e-01
3.538402751241879751e-01
3.538402751241879751e-01
3.465800534963698887e-01
3.465800534963698887e-01
3.561329766908674088e-01
3.561329766908674088e-01
3.561329766908674088e-01
3.450515857852503032e-01
3.450515857852503032e-01
3.385555980129919540e-01
3.385555980129919540e-01
3.385555980129919540e-01
3.366450133740924722e-01
3.366450133740924722e-01
3.385555980129919540e-01
3.385555980129919540e-01
3.385555980129919540e-01
3.339701948796331421e-01
3.339701948796331421e-01
3.442873519296905105e-01
3.442873519296905105e-01
3.442873519296905105e-01
3.332059610240733494e-01
3.332059610240733494e-01
3.267099732518150557e-01
3.267099732518150557e-01
3.267099732518150557e-01
3.286205578907145375e-01
3.286205578907145375e-01
3.351165456629728867e-01
3.351165456629728867e-01
3.351165456629728867e-01
3.217424531906763474e-01
3.217424531906763474e-01
3.320596102407336603e-01
3.320596102407336603e-01
3.320596102407336603e-01
3.209782193351165547e-01
3.209782193351165547e-01
3.209782193351165547e-01
3.209782193351165547e-01
3.209782193351165547e-01
3.167749331295376392e-01
3.167749331295376392e-01
3.202139854795567619e-01
3.202139854795567619e-01
3.202139854795567619e-01
3.171570500573175355e-01
3.171570500573175355e-01
3.079862437905999117e-01
3.079862437905999117e-01
3.079862437905999117e-01
3.034008406572410999e-01
3.034008406572410999e-01
2.995796713794421362e-01
2.995796713794421362e-01
2.995796713794421362e-01
2.927015666794038906e-01
2.927015666794038906e-01
2.965227359572029098e-01
2.965227359572029098e-01
2.965227359572029098e-01
2.888803974016048715e-01
2.888803974016048715e-01
2.831486434849063705e-01
2.831486434849063705e-01
2.831486434849063705e-01
2.930836836071837870e-01
2.930836836071837870e-01
2.923194497516239942e-01
2.923194497516239942e-01
2.923194497516239942e-01
2.739778372181887467e-01
2.739778372181887467e-01
2.881161635460450787e-01
2.881161635460450787e-01
2.881161635460450787e-01
2.751241880015284913e-01
2.751241880015284913e-01
2.640427970959113302e-01
2.640427970959113302e-01
2.640427970959113302e-01
2.606037447458922629e-01
2.606037447458922629e-01
2.628964463125716411e-01
2.628964463125716411e-01
2.628964463125716411e-01
2.586931601069927256e-01
2.586931601069927256e-01
2.609858616736721593e-01
2.609858616736721593e-01
2.609858616736721593e-01
2.510508215513947428e-01
2.510508215513947428e-01
2.479938861291555163e-01
2.479938861291555163e-01
2.479938861291555163e-01
2.468475353458158272e-01
2.468475353458158272e-01
2.483760030569354127e-01
2.483760030569354127e-01
2.483760030569354127e-01
2.388230798624378926e-01
2.388230798624378926e-01
2.307986243790599856e-01
2.307986243790599856e-01
2.307986243790599856e-01
2.243026366068016919e-01
2.243026366068016919e-01
2.388230798624378926e-01
2.388230798624378926e-01
2.388230798624378926e-01
2.243026366068016919e-01
2.243026366068016919e-01
2.262132212457011737e-01
2.262132212457011737e-01
2.262132212457011737e-01
2.250668704623614846e-01
2.250668704623614846e-01
2.147497134123041718e-01
2.147497134123041718e-01
2.071073748567061612e-01
2.071073748567061612e-01
2.071073748567061612e-01
2.051967902178066516e-01
2.051967902178066516e-01
2.128391287734046622e-01
2.128391287734046622e-01
2.128391287734046622e-01
2.147497134123041718e-01
2.147497134123041718e-01
2.109285441345051526e-01
2.109285441345051526e-01
2.109285441345051526e-01
1.937332823844096219e-01
1.937332823844096219e-01
1.906763469621704232e-01
1.906763469621704232e-01
1.906763469621704232e-01
1.956438670233091315e-01
1.956438670233091315e-01
2.055789071455865480e-01
2.055789071455865480e-01
2.055789071455865480e-01
1.929690485288498292e-01
1.929690485288498292e-01
2.021398547955674529e-01
2.021398547955674529e-01
2.021398547955674529e-01
2.025219717233473493e-01
2.025219717233473493e-01
1.899121131066106305e-01
1.899121131066106305e-01
1.899121131066106305e-01
1.837982422621322054e-01
1.837982422621322054e-01
1.818876576232326958e-01
1.818876576232326958e-01
1.818876576232326958e-01
1.941153993121895183e-01
1.941153993121895183e-01
1.922048146732900364e-01
1.922048146732900364e-01
1.922048146732900364e-01
1.933511654566297255e-01
1.933511654566297255e-01
1.933511654566297255e-01
1.933511654566297255e-01
1.933511654566297255e-01
1.834161253343523090e-01
1.834161253343523090e-01
1.864730607565915077e-01
1.864730607565915077e-01
1.864730607565915077e-01
1.864730607565915077e-01
1.864730607565915077e-01
1.780664883454337044e-01
1.780664883454337044e-01
1.780664883454337044e-01
1.895299961788307341e-01
1.895299961788307341e-01
1.944975162399694424e-01
1.944975162399694424e-01
1.944975162399694424e-01
1.883836453954910173e-01
1.883836453954910173e-01
1.857088269010317150e-01
1.857088269010317150e-01
1.857088269010317150e-01
1.929690485288498292e-01
1.929690485288498292e-01
1.956438670233091315e-01
1.956438670233091315e-01
1.956438670233091315e-01
1.776843714176538080e-01
1.776843714176538080e-01
1.780664883454337044e-01
1.780664883454337044e-01
1.780664883454337044e-01
1.841803591899121018e-01
1.841803591899121018e-01
1.738632021398547889e-01
1.738632021398547889e-01
1.738632021398547889e-01
1.876194115399312246e-01
1.876194115399312246e-01
1.883836453954910173e-01
1.883836453954910173e-01
1.883836453954910173e-01
1.784486052732136008e-01
1.784486052732136008e-01
1.857088269010317150e-01
1.857088269010317150e-01
1.857088269010317150e-01
1.899121131066106305e-01
1.899121131066106305e-01
1.815055406954527994e-01
1.815055406954527994e-01
1.815055406954527994e-01
1.711883836453954866e-01
1.711883836453954866e-01
1.815055406954527994e-01
1.815055406954527994e-01
1.815055406954527994e-01
1.849445930454719222e-01
1.849445930454719222e-01
1.792128391287733935e-01
1.792128391287733935e-01
1.792128391287733935e-01
1.708062667176155902e-01
1.708062667176155902e-01
1.780664883454337044e-01
1.780664883454337044e-01
1.780664883454337044e-01
1.704241497898356938e-01
1.704241497898356938e-01
1.719526175009552793e-01
1.719526175009552793e-01
1.719526175009552793e-01
1.688956820787160806e-01
1.688956820787160806e-01
1.723347344287352034e-01
1.723347344287352034e-01
1.723347344287352034e-01
1.700420328620557975e-01
1.700420328620557975e-01
1.654566297286969856e-01
1.654566297286969856e-01
1.654566297286969856e-01
1.730989682842949962e-01
1.730989682842949962e-01
1.646923958731371929e-01
1.646923958731371929e-01
1.646923958731371929e-01
1.631639281620175796e-01
1.631639281620175796e-01
1.681314482231562879e-01
1.681314482231562879e-01
1.681314482231562879e-01
1.807413068398930067e-01
1.807413068398930067e-01
1.620175773786778628e-01
1.620175773786778628e-01
1.620175773786778628e-01
1.730989682842949962e-01
1.730989682842949962e-01
1.792128391287733935e-01
1.792128391287733935e-01
1.792128391287733935e-01
1.730989682842949962e-01
1.730989682842949962e-01
1.788307222009934971e-01
1.788307222009934971e-01
1.788307222009934971e-01
1.773022544898739117e-01
1.773022544898739117e-01
1.799770729843332140e-01
1.799770729843332140e-01
1.799770729843332140e-01
1.715705005731753829e-01
1.715705005731753829e-01
1.727168513565150998e-01
1.727168513565150998e-01
1.727168513565150998e-01
1.666029805120366747e-01
1.666029805120366747e-01
1.746274359954146094e-01
1.746274359954146094e-01
1.746274359954146094e-01
1.608712265953381737e-01
1.608712265953381737e-01
1.578142911730989750e-01
1.578142911730989750e-01
1.578142911730989750e-01
1.742453190676346853e-01
1.742453190676346853e-01
1.562858234619793618e-01
1.562858234619793618e-01
1.562858234619793618e-01
1.570500573175391545e-01
1.570500573175391545e-01
1.646923958731371929e-01
1.646923958731371929e-01
1.646923958731371929e-01
1.646923958731371929e-01
1.646923958731371929e-01
1.654566297286969856e-01
1.654566297286969856e-01
1.654566297286969856e-01
1.574321742453190787e-01
1.574321742453190787e-01
1.662208635842567783e-01
1.662208635842567783e-01
1.662208635842567783e-01
1.497898356897210681e-01
1.497898356897210681e-01
1.486434849063813513e-01
1.486434849063813513e-01
1.486434849063813513e-01
1.555215896064195691e-01
1.555215896064195691e-01
1.574321742453190787e-01
1.574321742453190787e-01
1.574321742453190787e-01
1.662208635842567783e-01
1.662208635842567783e-01
1.471150171952617380e-01
1.471150171952617380e-01
1.608712265953381737e-01
1.608712265953381737e-01
1.608712265953381737e-01
1.425296140619029539e-01
1.425296140619029539e-01
1.471150171952617380e-01
1.471150171952617380e-01
1.471150171952617380e-01
1.494077187619411440e-01
1.494077187619411440e-01
1.551394726786396727e-01
1.551394726786396727e-01
1.551394726786396727e-01
1.432938479174627466e-01
1.432938479174627466e-01
1.387084447841039347e-01
1.387084447841039347e-01
1.387084447841039347e-01
1.402369124952235480e-01
1.402369124952235480e-01
1.520825372564004463e-01
1.520825372564004463e-01
1.520825372564004463e-01
1.398547955674436516e-01
1.398547955674436516e-01
1.432938479174627466e-01
1.432938479174627466e-01
1.432938479174627466e-01
1.406190294230034443e-01
1.406190294230034443e-01
1.337409247229652265e-01
1.337409247229652265e-01
1.337409247229652265e-01
1.379442109285441420e-01
1.379442109285441420e-01
1.318303400840657169e-01
1.318303400840657169e-01
1.318303400840657169e-01
1.425296140619029539e-01
1.425296140619029539e-01
1.348872755063049156e-01
1.348872755063049156e-01
1.348872755063049156e-01
1.390905617118838311e-01
1.390905617118838311e-01
1.341230416507451229e-01
1.341230416507451229e-01
1.341230416507451229e-01
1.482613679786014549e-01
1.482613679786014549e-01
1.303018723729461315e-01
1.303018723729461315e-01
1.303018723729461315e-01
1.245701184562476166e-01
1.245701184562476166e-01
1.329766908674054338e-01
1.329766908674054338e-01
1.329766908674054338e-01
1.238058846006878100e-01
1.238058846006878100e-01
1.356515093618647361e-01
1.356515093618647361e-01
1.356515093618647361e-01
1.410011463507833407e-01
1.410011463507833407e-01
1.291555215896064146e-01
1.291555215896064146e-01
1.291555215896064146e-01
1.257164692395873196e-01
1.257164692395873196e-01
1.325945739396255374e-01
1.325945739396255374e-01
1.325945739396255374e-01
1.257164692395873196e-01
1.257164692395873196e-01
1.245701184562476166e-01
1.245701184562476166e-01
1.245701184562476166e-01
1.287734046618265182e-01
1.287734046618265182e-01
1.169277799006495921e-01
1.169277799006495921e-01
1.169277799006495921e-01
1.299197554451662073e-01
1.299197554451662073e-01
1.138708444784103935e-01
1.138708444784103935e-01
1.138708444784103935e-01
1.318303400840657169e-01
1.318303400840657169e-01
1.280091708062667255e-01
