2.086358425678257467e-01
2.158960641956438609e-01
2.158960641956438609e-01
2.158960641956438609e-01
2.059610240733664444e-01
2.059610240733664444e-01
2.059610240733664444e-01
2.059610240733664444e-01
2.059610240733664444e-01
2.162781811234237572e-01
2.162781811234237572e-01
2.147497134123041718e-01
2.147497134123041718e-01
2.147497134123041718e-01
2.032862055789071420e-01
2.032862055789071420e-01
2.059610240733664444e-01
2.059610240733664444e-01
2.059610240733664444e-01
2.132212457011845586e-01
2.132212457011845586e-01
2.063431410011463407e-01
2.063431410011463407e-01
2.063431410011463407e-01
2.128391287734046622e-01
2.128391287734046622e-01
2.036683225066870384e-01
2.036683225066870384e-01
2.036683225066870384e-01
2.082537256400458503e-01
2.082537256400458503e-01
2.009935040122277361e-01
2.009935040122277361e-01
2.009935040122277361e-01
2.082537256400458503e-01
2.082537256400458503e-01
2.032862055789071420e-01
2.032862055789071420e-01
2.032862055789071420e-01
1.967902178066488483e-01
1.967902178066488483e-01
1.994650363011081506e-01
1.994650363011081506e-01
1.994650363011081506e-01
2.151318303400840681e-01
2.151318303400840681e-01
2.158960641956438609e-01
2.158960641956438609e-01
2.158960641956438609e-01
1.971723347344287447e-01
1.971723347344287447e-01
2.002292701566679434e-01
2.002292701566679434e-01
1.933511654566297255e-01
1.933511654566297255e-01
1.933511654566297255e-01
2.090179594956056430e-01
2.090179594956056430e-01
2.097821933511654635e-01
2.097821933511654635e-01
2.097821933511654635e-01
1.990829193733282265e-01
1.990829193733282265e-01
2.040504394344669348e-01
2.040504394344669348e-01
2.040504394344669348e-01
2.032862055789071420e-01
2.032862055789071420e-01
2.013756209400076325e-01
2.013756209400076325e-01
2.013756209400076325e-01
1.987008024455483302e-01
1.987008024455483302e-01
2.063431410011463407e-01
2.063431410011463407e-01
2.063431410011463407e-01
1.899121131066106305e-01
1.899121131066106305e-01
1.925869316010699328e-01
1.925869316010699328e-01
1.925869316010699328e-01
2.078716087122659539e-01
2.078716087122659539e-01
2.067252579289262648e-01
2.067252579289262648e-01
2.067252579289262648e-01
1.964081008788689242e-01
1.964081008788689242e-01
1.975544516622086411e-01
1.975544516622086411e-01
1.975544516622086411e-01
2.055789071455865480e-01
2.055789071455865480e-01
1.925869316010699328e-01
1.925869316010699328e-01
1.925869316010699328e-01
1.933511654566297255e-01
1.933511654566297255e-01
1.960259839510890278e-01
1.960259839510890278e-01
1.960259839510890278e-01
1.880015284677111209e-01
1.880015284677111209e-01
1.960259839510890278e-01
1.960259839510890278e-01
1.960259839510890278e-01
1.998471532288880470e-01
1.998471532288880470e-01
1.902942300343905269e-01
1.902942300343905269e-01
1.902942300343905269e-01
1.880015284677111209e-01
1.880015284677111209e-01
1.983186855177684338e-01
1.983186855177684338e-01
1.983186855177684338e-01
1.918226977455101123e-01
1.918226977455101123e-01
2.017577378677875566e-01
2.017577378677875566e-01
2.017577378677875566e-01
1.849445930454719222e-01
1.849445930454719222e-01
1.849445930454719222e-01
1.849445930454719222e-01
1.849445930454719222e-01
1.834161253343523090e-01
1.834161253343523090e-01
1.929690485288498292e-01
1.929690485288498292e-01
1.929690485288498292e-01
2.006113870844478397e-01
2.006113870844478397e-01
1.925869316010699328e-01
1.925869316010699328e-01
1.925869316010699328e-01
1.979365685899885374e-01
1.979365685899885374e-01
1.910584638899503196e-01
1.910584638899503196e-01
1.910584638899503196e-01
1.845624761176920259e-01
1.845624761176920259e-01
1.880015284677111209e-01
1.880015284677111209e-01
1.880015284677111209e-01
1.826518914787925163e-01
1.826518914787925163e-01
2.006113870844478397e-01
2.006113870844478397e-01
2.006113870844478397e-01
1.891478792510508100e-01
1.891478792510508100e-01
1.857088269010317150e-01
1.857088269010317150e-01
1.857088269010317150e-01
2.013756209400076325e-01
2.013756209400076325e-01
1.964081008788689242e-01
1.964081008788689242e-01
1.964081008788689242e-01
1.803591899121131104e-01
1.803591899121131104e-01
1.818876576232326958e-01
1.818876576232326958e-01
1.818876576232326958e-01
1.818876576232326958e-01
1.818876576232326958e-01
1.837982422621322054e-01
1.837982422621322054e-01
1.837982422621322054e-01
1.933511654566297255e-01
1.933511654566297255e-01
1.887657623232709136e-01
1.887657623232709136e-01
1.887657623232709136e-01
1.929690485288498292e-01
1.929690485288498292e-01
1.803591899121131104e-01
1.803591899121131104e-01
1.803591899121131104e-01
1.914405808177302160e-01
1.914405808177302160e-01
1.815055406954527994e-01
1.815055406954527994e-01
1.815055406954527994e-01
1.944975162399694424e-01
1.944975162399694424e-01
1.983186855177684338e-01
1.983186855177684338e-01
1.983186855177684338e-01
1.902942300343905269e-01
1.902942300343905269e-01
1.857088269010317150e-01
1.857088269010317150e-01
1.857088269010317150e-01
1.899121131066106305e-01
1.899121131066106305e-01
1.910584638899503196e-01
1.910584638899503196e-01
1.910584638899503196e-01
1.914405808177302160e-01
1.914405808177302160e-01
1.941153993121895183e-01
1.941153993121895183e-01
1.941153993121895183e-01
1.857088269010317150e-01
1.857088269010317150e-01
1.864730607565915077e-01
1.864730607565915077e-01
1.864730607565915077e-01
1.837982422621322054e-01
1.837982422621322054e-01
1.876194115399312246e-01
1.876194115399312246e-01
1.876194115399312246e-01
1.910584638899503196e-01
1.910584638899503196e-01
2.009935040122277361e-01
2.009935040122277361e-01
2.009935040122277361e-01
1.773022544898739117e-01
1.773022544898739117e-01
1.860909438288116113e-01
1.860909438288116113e-01
1.860909438288116113e-01
1.811234237676729031e-01
1.811234237676729031e-01
1.750095529231945057e-01
1.750095529231945057e-01
1.750095529231945057e-01
1.952617500955292351e-01
1.952617500955292351e-01
1.929690485288498292e-01
1.929690485288498292e-01
1.929690485288498292e-01
1.837982422621322054e-01
1.837982422621322054e-01
1.960259839510890278e-01
1.960259839510890278e-01
1.960259839510890278e-01
1.887657623232709136e-01
1.887657623232709136e-01
1.780664883454337044e-01
1.780664883454337044e-01
1.780664883454337044e-01
1.841803591899121018e-01
1.841803591899121018e-01
1.910584638899503196e-01
1.910584638899503196e-01
1.910584638899503196e-01
1.960259839510890278e-01
1.960259839510890278e-01
1.929690485288498292e-01
1.929690485288498292e-01
1.929690485288498292e-01
1.872372946121513282e-01
1.872372946121513282e-01
1.864730607565915077e-01
1.864730607565915077e-01
1.983186855177684338e-01
1.983186855177684338e-01
1.983186855177684338e-01
1.857088269010317150e-01
1.857088269010317150e-01
1.872372946121513282e-01
1.872372946121513282e-01
1.872372946121513282e-01
1.788307222009934971e-01
1.788307222009934971e-01
1.967902178066488483e-01
1.967902178066488483e-01
1.967902178066488483e-01
1.941153993121895183e-01
1.941153993121895183e-01
1.922048146732900364e-01
1.922048146732900364e-01
1.922048146732900364e-01
1.929690485288498292e-01
1.929690485288498292e-01
1.841803591899121018e-01
1.841803591899121018e-01
1.841803591899121018e-01
2.021398547955674529e-01
2.021398547955674529e-01
1.849445930454719222e-01
1.849445930454719222e-01
1.849445930454719222e-01
2.013756209400076325e-01
2.013756209400076325e-01
1.922048146732900364e-01
1.922048146732900364e-01
1.922048146732900364e-01
1.837982422621322054e-01
1.837982422621322054e-01
1.929690485288498292e-01
1.929690485288498292e-01
1.929690485288498292e-01
1.826518914787925163e-01
1.826518914787925163e-01
1.807413068398930067e-01
1.807413068398930067e-01
1.807413068398930067e-01
2.017577378677875566e-01
2.017577378677875566e-01
1.910584638899503196e-01
1.910584638899503196e-01
1.910584638899503196e-01
1.899121131066106305e-01
1.899121131066106305e-01
1.979365685899885374e-01
1.979365685899885374e-01
1.979365685899885374e-01
1.860909438288116113e-01
1.860909438288116113e-01
1.872372946121513282e-01
1.872372946121513282e-01
1.872372946121513282e-01
1.799770729843332140e-01
1.799770729843332140e-01
2.029040886511272457e-01
2.029040886511272457e-01
2.029040886511272457e-01
1.849445930454719222e-01
1.849445930454719222e-01
1.883836453954910173e-01
1.883836453954910173e-01
1.883836453954910173e-01
1.864730607565915077e-01
1.864730607565915077e-01
1.818876576232326958e-01
1.818876576232326958e-01
1.818876576232326958e-01
1.952617500955292351e-01
1.952617500955292351e-01
1.983186855177684338e-01
1.983186855177684338e-01
1.983186855177684338e-01
1.944975162399694424e-01
1.944975162399694424e-01
1.872372946121513282e-01
1.872372946121513282e-01
1.872372946121513282e-01
1.807413068398930067e-01
1.807413068398930067e-01
1.872372946121513282e-01
1.872372946121513282e-01
1.872372946121513282e-01
1.799770729843332140e-01
1.799770729843332140e-01
1.906763469621704232e-01
1.906763469621704232e-01
1.906763469621704232e-01
1.811234237676729031e-01
1.811234237676729031e-01
1.967902178066488483e-01
1.967902178066488483e-01
1.967902178066488483e-01
1.887657623232709136e-01
1.887657623232709136e-01
1.868551776843714041e-01
1.868551776843714041e-01
1.868551776843714041e-01
1.792128391287733935e-01
1.792128391287733935e-01
1.899121131066106305e-01
1.899121131066106305e-01
1.899121131066106305e-01
1.849445930454719222e-01
1.849445930454719222e-01
1.868551776843714041e-01
1.868551776843714041e-01
1.868551776843714041e-01
1.853267099732518186e-01
1.853267099732518186e-01
1.948796331677493388e-01
1.948796331677493388e-01
1.948796331677493388e-01
2.002292701566679434e-01
2.002292701566679434e-01
2.021398547955674529e-01
2.021398547955674529e-01
2.021398547955674529e-01
1.822697745510126199e-01
1.822697745510126199e-01
1.937332823844096219e-01
1.937332823844096219e-01
1.937332823844096219e-01
1.990829193733282265e-01
1.990829193733282265e-01
2.048146732900267553e-01
2.048146732900267553e-01
2.048146732900267553e-01
1.937332823844096219e-01
1.937332823844096219e-01
1.952617500955292351e-01
1.952617500955292351e-01
1.952617500955292351e-01
1.891478792510508100e-01
1.891478792510508100e-01
2.090179594956056430e-01
2.090179594956056430e-01
2.090179594956056430e-01
1.922048146732900364e-01
1.922048146732900364e-01
1.914405808177302160e-01
1.914405808177302160e-01
1.914405808177302160e-01
1.922048146732900364e-01
1.922048146732900364e-01
2.074894917844860576e-01
2.074894917844860576e-01
2.074894917844860576e-01
2.021398547955674529e-01
2.021398547955674529e-01
2.094000764233855671e-01
2.094000764233855671e-01
2.094000764233855671e-01
2.055789071455865480e-01
2.055789071455865480e-01
2.170424149789835777e-01
2.170424149789835777e-01
2.170424149789835777e-01
2.235384027512418714e-01
2.235384027512418714e-01
2.139854795567443513e-01
2.139854795567443513e-01
2.139854795567443513e-01
2.197172334734428800e-01
2.197172334734428800e-01
2.288880397401604760e-01
2.288880397401604760e-01
2.288880397401604760e-01
2.334734428735192879e-01
2.334734428735192879e-01
2.392051967902178167e-01
2.392051967902178167e-01
2.392051967902178167e-01
2.544898739014138100e-01
2.544898739014138100e-01
2.564004585403133474e-01
2.564004585403133474e-01
2.564004585403133474e-01
2.521971723347344319e-01
2.521971723347344319e-01
2.644249140236912266e-01
2.644249140236912266e-01
2.644249140236912266e-01
2.628964463125716411e-01
2.628964463125716411e-01
2.644249140236912266e-01
2.644249140236912266e-01
2.644249140236912266e-01
2.632785632403515375e-01
2.632785632403515375e-01
2.816201757737867850e-01
2.816201757737867850e-01
2.816201757737867850e-01
2.686282002292701421e-01
2.686282002292701421e-01
2.762705387848681804e-01
2.762705387848681804e-01
2.888803974016048715e-01
2.888803974016048715e-01
2.888803974016048715e-01
2.900267481849446161e-01
2.900267481849446161e-01
2.953763851738632207e-01
2.953763851738632207e-01
2.953763851738632207e-01
2.953763851738632207e-01
2.953763851738632207e-01
3.041650745128008926e-01
3.041650745128008926e-01
3.041650745128008926e-01
3.133358807795185164e-01
3.133358807795185164e-01
3.095147115017195527e-01
3.095147115017195527e-01
3.095147115017195527e-01
3.018723729461215144e-01
3.018723729461215144e-01
3.171570500573175355e-01
3.171570500573175355e-01
3.171570500573175355e-01
3.118074130683989309e-01
3.118074130683989309e-01
3.305311425296140748e-01
3.305311425296140748e-01
3.305311425296140748e-01
3.213603362628964510e-01
3.213603362628964510e-01
3.282384409629346411e-01
3.282384409629346411e-01
3.282384409629346411e-01
3.290026748184944339e-01
3.290026748184944339e-01
3.377913641574321613e-01
3.377913641574321613e-01
3.377913641574321613e-01
3.412304165074512841e-01
3.412304165074512841e-01
3.278563240351547448e-01
3.278563240351547448e-01
3.278563240351547448e-01
3.423767672907909732e-01
3.423767672907909732e-01
3.374092472296522649e-01
3.374092472296522649e-01
3.374092472296522649e-01
3.290026748184944339e-01
3.290026748184944339e-01
3.320596102407336603e-01
3.320596102407336603e-01
3.320596102407336603e-01
3.423767672907909732e-01
3.423767672907909732e-01
3.461979365685899923e-01
3.461979365685899923e-01
3.461979365685899923e-01
3.320596102407336603e-01
3.320596102407336603e-01
3.309132594573939712e-01
3.309132594573939712e-01
3.309132594573939712e-01
3.370271303018723685e-01
3.370271303018723685e-01
3.465800534963698887e-01
3.465800534963698887e-01
3.465800534963698887e-01
3.286205578907145375e-01
3.286205578907145375e-01
3.450515857852503032e-01
3.450515857852503032e-01
3.450515857852503032e-01
3.450515857852503032e-01
3.450515857852503032e-01
3.301490256018341785e-01
3.301490256018341785e-01
3.301490256018341785e-01
3.446694688574704069e-01
3.446694688574704069e-01
3.381734810852120576e-01
3.381734810852120576e-01
3.381734810852120576e-01
3.404661826518914913e-01
3.404661826518914913e-01
3.408482995796713877e-01
3.408482995796713877e-01
3.408482995796713877e-01
3.309132594573939712e-01
3.309132594573939712e-01
3.358807795185326794e-01
3.358807795185326794e-01
3.358807795185326794e-01
3.343523118074130940e-01
3.343523118074130940e-01
3.416125334352311804e-01
3.416125334352311804e-01
3.416125334352311804e-01
3.320596102407336603e-01
3.320596102407336603e-01
3.309132594573939712e-01
3.309132594573939712e-01
3.309132594573939712e-01
3.286205578907145375e-01
3.286205578907145375e-01
3.228888039740160365e-01
3.228888039740160365e-01
3.228888039740160365e-01
3.312953763851738676e-01
3.312953763851738676e-01
3.370271303018723685e-01
3.370271303018723685e-01
3.370271303018723685e-01
3.316774933129537639e-01
3.316774933129537639e-01
3.263278563240351593e-01
3.263278563240351593e-01
3.263278563240351593e-01
3.366450133740924722e-01
3.366450133740924722e-01
3.335880779518532457e-01
3.335880779518532457e-01
3.335880779518532457e-01
3.385555980129919540e-01
3.385555980129919540e-01
3.213603362628964510e-01
3.213603362628964510e-01
3.213603362628964510e-01
3.274742071073748484e-01
3.274742071073748484e-01
3.259457393962552629e-01
3.259457393962552629e-01
3.259457393962552629e-01
3.339701948796331421e-01
3.339701948796331421e-01
3.175391669850974319e-01
3.175391669850974319e-01
3.175391669850974319e-01
3.141001146350783091e-01
3.141001146350783091e-01
3.106610622850592418e-01
3.106610622850592418e-01
3.106610622850592418e-01
3.217424531906763474e-01
3.217424531906763474e-01
3.202139854795567619e-01
3.202139854795567619e-01
3.202139854795567619e-01
3.125716469239587236e-01
3.125716469239587236e-01
3.079862437905999117e-01
3.079862437905999117e-01
3.079862437905999117e-01
3.049293083683607408e-01
3.049293083683607408e-01
3.114252961406190345e-01
3.114252961406190345e-01
3.114252961406190345e-01
3.087504776461597045e-01
3.087504776461597045e-01
2.995796713794421362e-01
2.995796713794421362e-01
2.995796713794421362e-01
3.110431792128391382e-01
3.110431792128391382e-01
3.106610622850592418e-01
3.106610622850592418e-01
3.106610622850592418e-01
3.091325945739396008e-01
3.091325945739396008e-01
2.927015666794038906e-01
2.927015666794038906e-01
2.927015666794038906e-01
2.969048528849828061e-01
2.969048528849828061e-01
2.961406190294230134e-01
2.961406190294230134e-01
2.961406190294230134e-01
2.850592281238059078e-01
2.850592281238059078e-01
2.999617883072220326e-01
2.999617883072220326e-01
2.999617883072220326e-01
2.835307604126862668e-01
2.835307604126862668e-01
2.953763851738632207e-01
2.953763851738632207e-01
2.953763851738632207e-01
2.789453572793274549e-01
2.789453572793274549e-01
2.777990064959877659e-01
2.777990064959877659e-01
2.777990064959877659e-01
2.896446312571647197e-01
2.896446312571647197e-01
2.804738249904470959e-01
2.804738249904470959e-01
2.804738249904470959e-01
2.823844096293465777e-01
2.823844096293465777e-01
2.770347726404279731e-01
2.770347726404279731e-01
2.762705387848681804e-01
2.762705387848681804e-01
2.762705387848681804e-01
2.758884218570882840e-01
2.758884218570882840e-01
2.755063049293083877e-01
2.755063049293083877e-01
2.755063049293083877e-01
2.697745510126098312e-01
2.697745510126098312e-01
2.724493695070691612e-01
2.724493695070691612e-01
2.724493695070691612e-01
2.606037447458922629e-01
2.606037447458922629e-01
2.724493695070691612e-01
2.724493695070691612e-01
2.724493695070691612e-01
2.659533817348108675e-01
2.659533817348108675e-01
2.690103171570500384e-01
2.690103171570500384e-01
2.690103171570500384e-01
2.606037447458922629e-01
2.606037447458922629e-01
2.521971723347344319e-01
2.521971723347344319e-01
2.521971723347344319e-01
2.529614061902942246e-01
2.529614061902942246e-01
2.575468093236530365e-01
2.575468093236530365e-01
2.575468093236530365e-01
2.548719908291937064e-01
2.548719908291937064e-01
2.602216278181123665e-01
2.602216278181123665e-01
2.602216278181123665e-01
2.586931601069927256e-01
2.586931601069927256e-01
2.609858616736721593e-01
2.609858616736721593e-01
2.609858616736721593e-01
2.506687046236148464e-01
2.506687046236148464e-01
2.556362246847535546e-01
2.556362246847535546e-01
2.556362246847535546e-01
2.426442491402369117e-01
2.426442491402369117e-01
2.499044707680550259e-01
2.499044707680550259e-01
2.499044707680550259e-01
2.445548337791364213e-01
2.445548337791364213e-01
2.445548337791364213e-01
2.445548337791364213e-01
2.445548337791364213e-01
2.556362246847535546e-01
2.556362246847535546e-01
2.483760030569354127e-01
2.483760030569354127e-01
2.483760030569354127e-01
2.414978983568972226e-01
2.414978983568972226e-01
2.414978983568972226e-01
2.414978983568972226e-01
2.414978983568972226e-01
2.521971723347344319e-01
2.521971723347344319e-01
2.342376767290791084e-01
2.342376767290791084e-01
2.342376767290791084e-01
2.407336645013374021e-01
2.407336645013374021e-01
2.430263660680168081e-01
2.430263660680168081e-01
2.430263660680168081e-01
2.476117692013756200e-01
2.476117692013756200e-01
2.495223538402751295e-01
2.495223538402751295e-01
2.495223538402751295e-01
2.392051967902178167e-01
2.392051967902178167e-01
2.449369507069163177e-01
2.449369507069163177e-01
2.449369507069163177e-01
2.476117692013756200e-01
2.476117692013756200e-01
2.460833014902560067e-01
2.460833014902560067e-01
2.460833014902560067e-01
2.479938861291555163e-01
2.479938861291555163e-01
2.487581199847153091e-01
2.487581199847153091e-01
2.487581199847153091e-01
2.453190676346962140e-01
2.453190676346962140e-01
2.491402369124952332e-01
2.491402369124952332e-01
2.491402369124952332e-01
2.388230798624378926e-01
2.388230798624378926e-01
2.380588460068780998e-01
2.380588460068780998e-01
2.380588460068780998e-01
2.407336645013374021e-01
2.407336645013374021e-01
2.311807413068398820e-01
2.311807413068398820e-01
2.311807413068398820e-01
2.262132212457011737e-01
2.262132212457011737e-01
2.376767290790982035e-01
2.376767290790982035e-01
2.376767290790982035e-01
2.437905999235766008e-01
2.437905999235766008e-01
2.330913259457393916e-01
2.330913259457393916e-01
2.330913259457393916e-01
2.376767290790982035e-01
2.376767290790982035e-01
2.430263660680168081e-01
2.430263660680168081e-01
2.430263660680168081e-01
2.487581199847153091e-01
2.487581199847153091e-01
2.376767290790982035e-01
2.376767290790982035e-01
2.376767290790982035e-01
2.437905999235766008e-01
2.437905999235766008e-01
2.422621322124570153e-01
2.422621322124570153e-01
2.422621322124570153e-01
2.372946121513183071e-01
2.372946121513183071e-01
2.323270920901795988e-01
2.323270920901795988e-01
2.323270920901795988e-01
2.361482613679785902e-01
2.361482613679785902e-01
2.430263660680168081e-01
2.430263660680168081e-01
2.430263660680168081e-01
2.453190676346962140e-01
2.453190676346962140e-01
2.483760030569354127e-01
2.483760030569354127e-01
2.483760030569354127e-01
2.453190676346962140e-01
2.453190676346962140e-01
2.311807413068398820e-01
2.311807413068398820e-01
2.311807413068398820e-01
2.288880397401604760e-01
2.288880397401604760e-01
2.414978983568972226e-01
2.414978983568972226e-01
2.414978983568972226e-01
2.392051967902178167e-01
2.392051967902178167e-01
2.395873137179977130e-01
2.395873137179977130e-01
2.395873137179977130e-01
2.246847535345815883e-01
2.246847535345815883e-01
2.437905999235766008e-01
2.437905999235766008e-01
2.437905999235766008e-01
2.338555598012991843e-01
2.338555598012991843e-01
2.399694306457776094e-01
2.399694306457776094e-01
2.399694306457776094e-01
2.449369507069163177e-01
2.449369507069163177e-01
2.262132212457011737e-01
2.262132212457011737e-01
2.262132212457011737e-01
2.311807413068398820e-01
2.311807413068398820e-01
2.315628582346198061e-01
2.315628582346198061e-01
2.315628582346198061e-01
2.273595720290408906e-01
2.273595720290408906e-01
2.376767290790982035e-01
2.376767290790982035e-01
2.376767290790982035e-01
2.357661444401986939e-01
2.357661444401986939e-01
2.277416889568207869e-01
2.277416889568207869e-01
2.277416889568207869e-01
2.227741688956820787e-01
2.227741688956820787e-01
2.380588460068780998e-01
2.380588460068780998e-01
2.380588460068780998e-01
2.208635842567825691e-01
2.208635842567825691e-01
2.158960641956438609e-01
2.158960641956438609e-01
2.307986243790599856e-01
2.307986243790599856e-01
2.307986243790599856e-01
2.139854795567443513e-01
2.139854795567443513e-01
2.338555598012991843e-01
2.338555598012991843e-01
2.338555598012991843e-01
2.277416889568207869e-01
2.277416889568207869e-01
2.281238058846006833e-01
2.281238058846006833e-01
2.281238058846006833e-01
2.155139472678639645e-01
2.155139472678639645e-01
2.143675964845242754e-01
2.143675964845242754e-01
2.143675964845242754e-01
2.170424149789835777e-01
2.170424149789835777e-01
2.243026366068016919e-01
2.243026366068016919e-01
2.243026366068016919e-01
2.200993504012227764e-01
2.200993504012227764e-01
2.208635842567825691e-01
2.208635842567825691e-01
2.208635842567825691e-01
2.139854795567443513e-01
2.139854795567443513e-01
2.250668704623614846e-01
2.250668704623614846e-01
2.250668704623614846e-01
2.277416889568207869e-01
2.277416889568207869e-01
2.181887657623232668e-01
2.181887657623232668e-01
2.181887657623232668e-01
2.082537256400458503e-01
2.082537256400458503e-01
2.147497134123041718e-01
2.147497134123041718e-01
2.147497134123041718e-01
2.273595720290408906e-01
2.273595720290408906e-01
2.208635842567825691e-01
2.208635842567825691e-01
2.208635842567825691e-01
2.097821933511654635e-01
2.097821933511654635e-01
2.094000764233855671e-01
2.094000764233855671e-01
2.094000764233855671e-01
2.193351165456629837e-01
2.193351165456629837e-01
2.086358425678257467e-01
2.086358425678257467e-01
2.086358425678257467e-01
2.105464272067252562e-01
2.105464272067252562e-01
2.097821933511654635e-01
2.097821933511654635e-01
2.097821933511654635e-01
2.074894917844860576e-01
2.074894917844860576e-01
2.246847535345815883e-01
2.246847535345815883e-01
2.246847535345815883e-01
2.189529996178830595e-01
2.189529996178830595e-01
2.128391287734046622e-01
2.128391287734046622e-01
2.128391287734046622e-01
2.204814673290026728e-01
2.204814673290026728e-01
2.220099350401222860e-01
2.220099350401222860e-01
2.220099350401222860e-01
2.216278181123423896e-01
2.216278181123423896e-01
2.032862055789071420e-01
2.032862055789071420e-01
2.032862055789071420e-01
2.082537256400458503e-01
2.082537256400458503e-01
2.032862055789071420e-01
2.032862055789071420e-01
2.032862055789071420e-01
2.155139472678639645e-01
2.155139472678639645e-01
2.017577378677875566e-01
2.017577378677875566e-01
2.017577378677875566e-01
2.212457011845624655e-01
2.212457011845624655e-01
2.029040886511272457e-01
2.029040886511272457e-01
2.029040886511272457e-01
2.021398547955674529e-01
2.021398547955674529e-01
2.170424149789835777e-01
2.170424149789835777e-01
2.170424149789835777e-01
2.006113870844478397e-01
2.006113870844478397e-01
2.090179594956056430e-01
2.090179594956056430e-01
2.090179594956056430e-01
2.040504394344669348e-01
2.040504394344669348e-01
2.158960641956438609e-01
2.158960641956438609e-01
2.158960641956438609e-01
2.109285441345051526e-01
2.109285441345051526e-01
2.147497134123041718e-01
2.147497134123041718e-01
2.147497134123041718e-01
2.170424149789835777e-01
2.170424149789835777e-01
2.006113870844478397e-01
2.006113870844478397e-01
2.006113870844478397e-01
2.013756209400076325e-01
2.013756209400076325e-01
2.128391287734046622e-01
2.128391287734046622e-01
2.128391287734046622e-01
2.074894917844860576e-01
2.074894917844860576e-01
1.971723347344287447e-01
1.971723347344287447e-01
1.971723347344287447e-01
2.063431410011463407e-01
2.063431410011463407e-01
2.009935040122277361e-01
2.009935040122277361e-01
2.009935040122277361e-01
2.074894917844860576e-01
2.074894917844860576e-01
2.128391287734046622e-01
2.128391287734046622e-01
2.128391287734046622e-01
2.067252579289262648e-01
2.067252579289262648e-01
1.975544516622086411e-01
1.975544516622086411e-01
1.975544516622086411e-01
2.059610240733664444e-01
2.059610240733664444e-01
1.918226977455101123e-01
1.918226977455101123e-01
1.918226977455101123e-01
2.048146732900267553e-01
2.048146732900267553e-01
2.147497134123041718e-01
2.147497134123041718e-01
2.147497134123041718e-01
2.013756209400076325e-01
2.013756209400076325e-01
2.006113870844478397e-01
2.006113870844478397e-01
2.006113870844478397e-01
2.032862055789071420e-01
2.032862055789071420e-01
1.964081008788689242e-01
1.964081008788689242e-01
1.964081008788689242e-01
2.078716087122659539e-01
2.078716087122659539e-01
1.990829193733282265e-01
1.990829193733282265e-01
1.990829193733282265e-01
1.979365685899885374e-01
1.979365685899885374e-01
2.044325563622468589e-01
2.044325563622468589e-01
2.044325563622468589e-01
2.071073748567061612e-01
2.071073748567061612e-01
2.078716087122659539e-01
2.078716087122659539e-01
2.078716087122659539e-01
1.956438670233091315e-01
1.956438670233091315e-01
1.944975162399694424e-01
1.944975162399694424e-01
1.944975162399694424e-01
1.964081008788689242e-01
1.964081008788689242e-01
1.925869316010699328e-01
1.925869316010699328e-01
1.925869316010699328e-01
1.922048146732900364e-01
1.922048146732900364e-01
1.944975162399694424e-01
1.944975162399694424e-01
1.944975162399694424e-01
1.891478792510508100e-01
1.891478792510508100e-01
1.990829193733282265e-01
1.990829193733282265e-01
2.048146732900267553e-01
2.048146732900267553e-01
2.048146732900267553e-01
1.971723347344287447e-01
1.971723347344287447e-01
2.048146732900267553e-01
2.048146732900267553e-01
2.048146732900267553e-01
1.899121131066106305e-01
1.899121131066106305e-01
1.918226977455101123e-01
1.918226977455101123e-01
1.918226977455101123e-01
1.994650363011081506e-01
1.994650363011081506e-01
2.059610240733664444e-01
2.059610240733664444e-01
2.059610240733664444e-01
1.960259839510890278e-01
1.960259839510890278e-01
1.944975162399694424e-01
1.944975162399694424e-01
1.944975162399694424e-01
1.987008024455483302e-01
1.987008024455483302e-01
2.036683225066870384e-01
2.036683225066870384e-01
2.036683225066870384e-01
2.071073748567061612e-01
2.071073748567061612e-01
1.933511654566297255e-01
1.933511654566297255e-01
1.933511654566297255e-01
1.925869316010699328e-01
1.925869316010699328e-01
2.051967902178066516e-01
2.051967902178066516e-01
2.051967902178066516e-01
1.983186855177684338e-01
1.983186855177684338e-01
1.899121131066106305e-01
1.899121131066106305e-01
1.899121131066106305e-01
1.979365685899885374e-01
1.979365685899885374e-01
1.967902178066488483e-01
1.967902178066488483e-01
1.967902178066488483e-01
1.990829193733282265e-01
1.990829193733282265e-01
1.918226977455101123e-01
1.918226977455101123e-01
1.918226977455101123e-01
1.929690485288498292e-01
1.929690485288498292e-01
1.933511654566297255e-01
1.933511654566297255e-01
1.933511654566297255e-01
1.918226977455101123e-01
1.918226977455101123e-01
2.067252579289262648e-01
2.067252579289262648e-01
2.067252579289262648e-01
1.941153993121895183e-01
1.941153993121895183e-01
1.899121131066106305e-01
1.899121131066106305e-01
1.899121131066106305e-01
2.040504394344669348e-01
2.040504394344669348e-01
1.964081008788689242e-01
1.964081008788689242e-01
1.964081008788689242e-01
2.074894917844860576e-01
2.074894917844860576e-01
2.048146732900267553e-01
2.048146732900267553e-01
2.048146732900267553e-01
1.891478792510508100e-01
1.891478792510508100e-01
1.964081008788689242e-01
1.964081008788689242e-01
1.964081008788689242e-01
1.983186855177684338e-01
1.983186855177684338e-01
1.948796331677493388e-01
1.948796331677493388e-01
1.948796331677493388e-01
2.105464272067252562e-01
2.105464272067252562e-01
1.990829193733282265e-01
1.990829193733282265e-01
1.990829193733282265e-01
2.071073748567061612e-01
2.071073748567061612e-01
1.987008024455483302e-01
1.987008024455483302e-01
1.987008024455483302e-01
2.063431410011463407e-01
2.063431410011463407e-01
1.975544516622086411e-01
1.975544516622086411e-01
1.975544516622086411e-01
2.021398547955674529e-01
2.021398547955674529e-01
2.017577378677875566e-01
2.017577378677875566e-01
2.017577378677875566e-01
1.933511654566297255e-01
1.933511654566297255e-01
1.975544516622086411e-01
1.975544516622086411e-01
1.975544516622086411e-01
1.987008024455483302e-01
1.987008024455483302e-01
2.002292701566679434e-01
2.002292701566679434e-01
2.002292701566679434e-01
2.036683225066870384e-01
2.036683225066870384e-01
2.006113870844478397e-01
2.006113870844478397e-01
2.006113870844478397e-01
2.044325563622468589e-01
2.044325563622468589e-01
1.944975162399694424e-01
1.944975162399694424e-01
1.944975162399694424e-01
2.055789071455865480e-01
2.055789071455865480e-01
2.029040886511272457e-01
2.029040886511272457e-01
2.029040886511272457e-01
1.941153993121895183e-01
1.941153993121895183e-01
1.990829193733282265e-01
1.990829193733282265e-01
1.990829193733282265e-01
1.967902178066488483e-01
1.967902178066488483e-01
1.887657623232709136e-01
1.887657623232709136e-01
1.887657623232709136e-01
2.067252579289262648e-01
2.067252579289262648e-01
1.964081008788689242e-01
1.964081008788689242e-01
1.964081008788689242e-01
2.120748949178448695e-01
2.120748949178448695e-01
1.929690485288498292e-01
1.929690485288498292e-01
1.929690485288498292e-01
1.987008024455483302e-01
1.987008024455483302e-01
2.009935040122277361e-01
2.009935040122277361e-01
2.009935040122277361e-01
2.128391287734046622e-01
2.128391287734046622e-01
2.109285441345051526e-01
2.109285441345051526e-01
2.109285441345051526e-01
2.067252579289262648e-01
2.067252579289262648e-01
2.006113870844478397e-01
2.006113870844478397e-01
2.006113870844478397e-01
2.147497134123041718e-01
2.147497134123041718e-01
2.120748949178448695e-01
2.120748949178448695e-01
2.120748949178448695e-01
2.132212457011845586e-01
2.132212457011845586e-01
2.158960641956438609e-01
2.158960641956438609e-01
2.158960641956438609e-01
2.078716087122659539e-01
2.078716087122659539e-01
2.162781811234237572e-01
2.162781811234237572e-01
2.162781811234237572e-01
2.277416889568207869e-01
2.277416889568207869e-01
2.250668704623614846e-01
2.250668704623614846e-01
2.250668704623614846e-01
2.243026366068016919e-01
2.243026366068016919e-01
2.285059228123805797e-01
2.285059228123805797e-01
2.285059228123805797e-01
2.453190676346962140e-01
2.453190676346962140e-01
2.353840275124187975e-01
2.353840275124187975e-01
2.353840275124187975e-01
2.357661444401986939e-01
2.357661444401986939e-01
2.460833014902560067e-01
2.460833014902560067e-01
2.449369507069163177e-01
2.449369507069163177e-01
2.449369507069163177e-01
2.544898739014138100e-01
2.544898739014138100e-01
2.670997325181505566e-01
2.670997325181505566e-01
2.670997325181505566e-01
2.659533817348108675e-01
2.659533817348108675e-01
2.770347726404279731e-01
2.770347726404279731e-01
2.770347726404279731e-01
2.777990064959877659e-01
2.777990064959877659e-01
2.709209017959495758e-01
2.709209017959495758e-01
2.709209017959495758e-01
2.884982804738249751e-01
2.884982804738249751e-01
2.865876958349254933e-01
2.865876958349254933e-01
2.865876958349254933e-01
2.938479174627435797e-01
2.938479174627435797e-01
2.976690867405425989e-01
2.976690867405425989e-01
2.976690867405425989e-01
2.961406190294230134e-01
2.961406190294230134e-01
3.014902560183416180e-01
3.014902560183416180e-01
3.014902560183416180e-01
3.179212839128773282e-01
3.179212839128773282e-01
3.217424531906763474e-01
3.217424531906763474e-01
3.217424531906763474e-01
3.251815055406954702e-01
3.251815055406954702e-01
3.171570500573175355e-01
3.171570500573175355e-01
3.171570500573175355e-01
3.137179977072984127e-01
3.137179977072984127e-01
3.137179977072984127e-01
3.137179977072984127e-01
3.137179977072984127e-01
3.335880779518532457e-01
3.335880779518532457e-01
3.293847917462743857e-01
3.293847917462743857e-01
3.293847917462743857e-01
3.274742071073748484e-01
3.274742071073748484e-01
3.339701948796331421e-01
3.339701948796331421e-01
3.339701948796331421e-01
3.335880779518532457e-01
3.335880779518532457e-01
3.343523118074130940e-01
3.343523118074130940e-01
3.343523118074130940e-01
3.500191058463890115e-01
3.500191058463890115e-01
3.439052350019105586e-01
3.439052350019105586e-01
3.439052350019105586e-01
3.500191058463890115e-01
3.500191058463890115e-01
3.469621704241497850e-01
3.469621704241497850e-01
3.469621704241497850e-01
3.446694688574704069e-01
3.446694688574704069e-01
3.377913641574321613e-01
3.377913641574321613e-01
3.377913641574321613e-01
3.416125334352311804e-01
3.416125334352311804e-01
3.377913641574321613e-01
3.377913641574321613e-01
3.377913641574321613e-01
3.419946503630110768e-01
3.419946503630110768e-01
3.481085212074894741e-01
3.481085212074894741e-01
3.481085212074894741e-01
3.435231180741306622e-01
3.435231180741306622e-01
3.374092472296522649e-01
3.374092472296522649e-01
3.374092472296522649e-01
3.534581581964080788e-01
3.534581581964080788e-01
3.397019487963316986e-01
3.397019487963316986e-01
3.397019487963316986e-01
3.511654566297287006e-01
3.511654566297287006e-01
3.461979365685899923e-01
3.461979365685899923e-01
3.461979365685899923e-01
3.362628964463125758e-01
3.362628964463125758e-01
3.450515857852503032e-01
3.450515857852503032e-01
3.450515857852503032e-01
3.465800534963698887e-01
3.465800534963698887e-01
3.332059610240733494e-01
3.332059610240733494e-01
3.332059610240733494e-01
3.335880779518532457e-01
3.335880779518532457e-01
3.397019487963316986e-01
3.397019487963316986e-01
3.397019487963316986e-01
3.439052350019105586e-01
3.439052350019105586e-01
3.362628964463125758e-01
3.362628964463125758e-01
3.362628964463125758e-01
3.427588842185708695e-01
3.427588842185708695e-01
3.385555980129919540e-01
3.385555980129919540e-01
3.385555980129919540e-01
3.312953763851738676e-01
3.312953763851738676e-01
3.305311425296140748e-01
3.305311425296140748e-01
3.305311425296140748e-01
3.381734810852120576e-01
3.381734810852120576e-01
3.278563240351547448e-01
3.278563240351547448e-01
3.278563240351547448e-01
3.339701948796331421e-01
3.339701948796331421e-01
3.251815055406954702e-01
3.251815055406954702e-01
3.251815055406954702e-01
3.358807795185326794e-01
3.358807795185326794e-01
3.339701948796331421e-01
3.339701948796331421e-01
3.339701948796331421e-01
3.335880779518532457e-01
3.335880779518532457e-01
3.286205578907145375e-01
3.286205578907145375e-01
3.286205578907145375e-01
3.309132594573939712e-01
3.309132594573939712e-01
3.156285823461979501e-01
3.156285823461979501e-01
3.156285823461979501e-01
3.198318685517768656e-01
3.198318685517768656e-01
3.152464654184180537e-01
3.152464654184180537e-01
3.152464654184180537e-01
3.114252961406190345e-01
3.114252961406190345e-01
3.133358807795185164e-01
3.133358807795185164e-01
3.133358807795185164e-01
3.144822315628582610e-01
3.144822315628582610e-01
3.091325945739396008e-01
3.091325945739396008e-01
3.091325945739396008e-01
3.228888039740160365e-01
3.228888039740160365e-01
3.240351547573557256e-01
3.240351547573557256e-01
3.240351547573557256e-01
3.137179977072984127e-01
3.137179977072984127e-01
3.060756591517004299e-01
3.060756591517004299e-01
3.060756591517004299e-01
3.144822315628582610e-01
3.144822315628582610e-01
2.988154375238822880e-01
2.988154375238822880e-01
2.988154375238822880e-01
2.957585021016431170e-01
2.957585021016431170e-01
3.118074130683989309e-01
3.118074130683989309e-01
3.118074130683989309e-01
3.076041268628200154e-01
3.076041268628200154e-01
2.969048528849828061e-01
2.969048528849828061e-01
2.969048528849828061e-01
2.873519296904852860e-01
2.873519296904852860e-01
2.980512036683224952e-01
2.980512036683224952e-01
2.980512036683224952e-01
2.984333205961023916e-01
2.984333205961023916e-01
2.969048528849828061e-01
2.969048528849828061e-01
2.831486434849063705e-01
2.831486434849063705e-01
2.831486434849063705e-01
2.888803974016048715e-01
2.888803974016048715e-01
2.755063049293083877e-01
2.755063049293083877e-01
2.755063049293083877e-01
2.907909820405044088e-01
2.907909820405044088e-01
2.816201757737867850e-01
2.816201757737867850e-01
2.816201757737867850e-01
2.804738249904470959e-01
2.804738249904470959e-01
2.701566679403897830e-01
2.701566679403897830e-01
2.701566679403897830e-01
2.762705387848681804e-01
2.762705387848681804e-01
2.777990064959877659e-01
2.777990064959877659e-01
2.777990064959877659e-01
2.651891478792510748e-01
2.651891478792510748e-01
2.732136033626289540e-01
2.732136033626289540e-01
2.732136033626289540e-01
2.644249140236912266e-01
2.644249140236912266e-01
2.594573939625525183e-01
2.594573939625525183e-01
2.594573939625525183e-01
2.755063049293083877e-01
2.755063049293083877e-01
2.655712648070309712e-01
2.655712648070309712e-01
2.655712648070309712e-01
2.583110431792128292e-01
2.583110431792128292e-01
2.674818494459304530e-01
2.674818494459304530e-01
2.674818494459304530e-01
2.594573939625525183e-01
2.594573939625525183e-01
2.720672525792892649e-01
2.720672525792892649e-01
2.720672525792892649e-01
2.625143293847917447e-01
2.625143293847917447e-01
2.659533817348108675e-01
2.659533817348108675e-01
2.659533817348108675e-01
2.510508215513947428e-01
2.510508215513947428e-01
2.491402369124952332e-01
2.491402369124952332e-01
2.491402369124952332e-01
2.483760030569354127e-01
2.483760030569354127e-01
2.518150554069545355e-01
2.518150554069545355e-01
2.518150554069545355e-01
2.590752770347726219e-01
2.590752770347726219e-01
2.495223538402751295e-01
2.495223538402751295e-01
2.495223538402751295e-01
2.426442491402369117e-01
2.426442491402369117e-01
2.384409629346579962e-01
2.384409629346579962e-01
2.384409629346579962e-01
2.357661444401986939e-01
2.357661444401986939e-01
2.422621322124570153e-01
2.422621322124570153e-01
2.422621322124570153e-01
2.491402369124952332e-01
2.491402369124952332e-01
2.468475353458158272e-01
2.468475353458158272e-01
2.468475353458158272e-01
2.464654184180359309e-01
2.464654184180359309e-01
2.479938861291555163e-01
2.479938861291555163e-01
2.479938861291555163e-01
2.495223538402751295e-01
2.495223538402751295e-01
2.346197936568590048e-01
2.346197936568590048e-01
2.346197936568590048e-01
2.514329384791746391e-01
2.514329384791746391e-01
2.518150554069545355e-01
2.518150554069545355e-01
2.518150554069545355e-01
2.525792892625143282e-01
2.525792892625143282e-01
2.514329384791746391e-01
2.514329384791746391e-01
2.514329384791746391e-01
2.483760030569354127e-01
2.483760030569354127e-01
2.357661444401986939e-01
2.357661444401986939e-01
2.357661444401986939e-01
2.468475353458158272e-01
2.468475353458158272e-01
2.399694306457776094e-01
2.399694306457776094e-01
2.399694306457776094e-01
2.464654184180359309e-01
2.464654184180359309e-01
2.460833014902560067e-01
2.460833014902560067e-01
2.460833014902560067e-01
2.357661444401986939e-01
2.357661444401986939e-01
2.346197936568590048e-01
2.346197936568590048e-01
2.346197936568590048e-01
2.418800152846771190e-01
2.418800152846771190e-01
2.327092090179594952e-01
2.327092090179594952e-01
2.327092090179594952e-01
2.330913259457393916e-01
2.330913259457393916e-01
2.460833014902560067e-01
2.460833014902560067e-01
2.460833014902560067e-01
2.395873137179977130e-01
2.395873137179977130e-01
2.315628582346198061e-01
2.315628582346198061e-01
2.315628582346198061e-01
2.430263660680168081e-01
2.430263660680168081e-01
2.418800152846771190e-01
2.418800152846771190e-01
2.418800152846771190e-01
2.384409629346579962e-01
2.384409629346579962e-01
2.437905999235766008e-01
2.437905999235766008e-01
2.437905999235766008e-01
2.453190676346962140e-01
2.453190676346962140e-01
2.262132212457011737e-01
2.262132212457011737e-01
2.262132212457011737e-01
2.342376767290791084e-01
2.342376767290791084e-01
2.315628582346198061e-01
2.315628582346198061e-01
2.315628582346198061e-01
2.342376767290791084e-01
2.342376767290791084e-01
2.388230798624378926e-01
2.388230798624378926e-01
2.388230798624378926e-01
2.353840275124187975e-01
2.353840275124187975e-01
2.384409629346579962e-01
2.384409629346579962e-01
2.384409629346579962e-01
2.250668704623614846e-01
2.250668704623614846e-01
2.258311043179212774e-01
2.258311043179212774e-01
2.258311043179212774e-01
2.285059228123805797e-01
2.285059228123805797e-01
2.300343905235001929e-01
2.300343905235001929e-01
2.300343905235001929e-01
2.327092090179594952e-01
2.327092090179594952e-01
2.403515475735575058e-01
2.403515475735575058e-01
2.403515475735575058e-01
2.319449751623997025e-01
2.319449751623997025e-01
2.334734428735192879e-01
2.334734428735192879e-01
2.334734428735192879e-01
2.288880397401604760e-01
2.288880397401604760e-01
2.311807413068398820e-01
2.311807413068398820e-01
2.311807413068398820e-01
2.365303782957585144e-01
2.365303782957585144e-01
2.285059228123805797e-01
2.285059228123805797e-01
2.285059228123805797e-01
2.288880397401604760e-01
2.288880397401604760e-01
2.200993504012227764e-01
2.200993504012227764e-01
2.315628582346198061e-01
2.315628582346198061e-01
2.315628582346198061e-01
2.158960641956438609e-01
2.158960641956438609e-01
2.334734428735192879e-01
2.334734428735192879e-01
2.334734428735192879e-01
2.227741688956820787e-01
2.227741688956820787e-01
2.113106610622850490e-01
2.113106610622850490e-01
2.113106610622850490e-01
2.128391287734046622e-01
2.128391287734046622e-01
2.143675964845242754e-01
2.143675964845242754e-01
2.143675964845242754e-01
2.174245319067634741e-01
2.174245319067634741e-01
2.105464272067252562e-01
2.105464272067252562e-01
2.105464272067252562e-01
2.143675964845242754e-01
2.143675964845242754e-01
2.250668704623614846e-01
2.250668704623614846e-01
2.250668704623614846e-01
2.208635842567825691e-01
2.208635842567825691e-01
2.227741688956820787e-01
2.227741688956820787e-01
2.227741688956820787e-01
2.082537256400458503e-01
2.082537256400458503e-01
2.158960641956438609e-01
2.158960641956438609e-01
2.158960641956438609e-01
2.044325563622468589e-01
2.044325563622468589e-01
2.048146732900267553e-01
2.048146732900267553e-01
2.048146732900267553e-01
2.059610240733664444e-01
2.059610240733664444e-01
2.139854795567443513e-01
2.139854795567443513e-01
2.139854795567443513e-01
2.128391287734046622e-01
2.128391287734046622e-01
2.025219717233473493e-01
2.025219717233473493e-01
2.025219717233473493e-01
2.116927779900649731e-01
2.116927779900649731e-01
2.116927779900649731e-01
2.116927779900649731e-01
2.116927779900649731e-01
2.048146732900267553e-01
2.048146732900267553e-01
2.055789071455865480e-01
2.055789071455865480e-01
2.055789071455865480e-01
2.147497134123041718e-01
2.147497134123041718e-01
2.124570118456247658e-01
2.124570118456247658e-01
2.124570118456247658e-01
1.956438670233091315e-01
1.956438670233091315e-01
2.055789071455865480e-01
2.055789071455865480e-01
2.055789071455865480e-01
1.994650363011081506e-01
1.994650363011081506e-01
1.998471532288880470e-01
1.998471532288880470e-01
1.998471532288880470e-01
2.044325563622468589e-01
2.044325563622468589e-01
2.067252579289262648e-01
2.067252579289262648e-01
2.067252579289262648e-01
2.025219717233473493e-01
2.025219717233473493e-01
2.120748949178448695e-01
2.120748949178448695e-01
2.120748949178448695e-01
2.036683225066870384e-01
2.036683225066870384e-01
2.147497134123041718e-01
2.147497134123041718e-01
2.147497134123041718e-01
2.051967902178066516e-01
2.051967902178066516e-01
1.956438670233091315e-01
1.956438670233091315e-01
1.956438670233091315e-01
1.975544516622086411e-01
1.975544516622086411e-01
2.021398547955674529e-01
2.021398547955674529e-01
2.021398547955674529e-01
2.090179594956056430e-01
2.090179594956056430e-01
1.960259839510890278e-01
1.960259839510890278e-01
1.960259839510890278e-01
1.929690485288498292e-01
1.929690485288498292e-01
2.051967902178066516e-01
2.051967902178066516e-01
2.051967902178066516e-01
1.922048146732900364e-01
1.922048146732900364e-01
2.120748949178448695e-01
2.120748949178448695e-01
2.120748949178448695e-01
2.040504394344669348e-01
2.040504394344669348e-01
2.067252579289262648e-01
2.067252579289262648e-01
2.067252579289262648e-01
1.914405808177302160e-01
1.914405808177302160e-01
1.994650363011081506e-01
1.994650363011081506e-01
1.994650363011081506e-01
2.021398547955674529e-01
2.021398547955674529e-01
2.021398547955674529e-01
2.021398547955674529e-01
2.021398547955674529e-01
2.032862055789071420e-01
2.032862055789071420e-01
2.048146732900267553e-01
2.048146732900267553e-01
2.048146732900267553e-01
2.040504394344669348e-01
2.040504394344669348e-01
1.998471532288880470e-01
1.998471532288880470e-01
1.998471532288880470e-01
1.960259839510890278e-01
1.960259839510890278e-01
1.902942300343905269e-01
1.902942300343905269e-01
1.902942300343905269e-01
1.944975162399694424e-01
1.944975162399694424e-01
2.017577378677875566e-01
2.017577378677875566e-01
2.017577378677875566e-01
1.918226977455101123e-01
1.918226977455101123e-01
1.929690485288498292e-01
1.929690485288498292e-01
1.929690485288498292e-01
1.933511654566297255e-01
1.933511654566297255e-01
1.914405808177302160e-01
1.914405808177302160e-01
1.914405808177302160e-01
1.944975162399694424e-01
1.944975162399694424e-01
1.948796331677493388e-01
1.948796331677493388e-01
1.948796331677493388e-01
2.006113870844478397e-01
2.006113870844478397e-01
1.849445930454719222e-01
1.849445930454719222e-01
1.849445930454719222e-01
1.914405808177302160e-01
1.914405808177302160e-01
2.040504394344669348e-01
2.040504394344669348e-01
2.040504394344669348e-01
1.895299961788307341e-01
1.895299961788307341e-01
2.017577378677875566e-01
2.017577378677875566e-01
2.017577378677875566e-01
1.960259839510890278e-01
1.960259839510890278e-01
1.895299961788307341e-01
1.895299961788307341e-01
1.895299961788307341e-01
1.899121131066106305e-01
1.899121131066106305e-01
1.960259839510890278e-01
1.960259839510890278e-01
1.960259839510890278e-01
1.967902178066488483e-01
1.967902178066488483e-01
1.906763469621704232e-01
1.906763469621704232e-01
1.906763469621704232e-01
1.998471532288880470e-01
1.998471532288880470e-01
1.880015284677111209e-01
1.880015284677111209e-01
1.880015284677111209e-01
1.906763469621704232e-01
1.906763469621704232e-01
1.944975162399694424e-01
1.944975162399694424e-01
1.872372946121513282e-01
1.872372946121513282e-01
1.872372946121513282e-01
1.948796331677493388e-01
1.948796331677493388e-01
2.002292701566679434e-01
2.002292701566679434e-01
2.002292701566679434e-01
1.876194115399312246e-01
1.876194115399312246e-01
1.883836453954910173e-01
1.883836453954910173e-01
1.883836453954910173e-01
1.906763469621704232e-01
1.906763469621704232e-01
1.975544516622086411e-01
1.975544516622086411e-01
1.975544516622086411e-01
1.983186855177684338e-01
1.983186855177684338e-01
1.944975162399694424e-01
1.944975162399694424e-01
1.944975162399694424e-01
1.880015284677111209e-01
1.880015284677111209e-01
2.025219717233473493e-01
2.025219717233473493e-01
2.025219717233473493e-01
1.910584638899503196e-01
1.910584638899503196e-01
2.036683225066870384e-01
2.036683225066870384e-01
2.036683225066870384e-01
1.891478792510508100e-01
1.891478792510508100e-01
2.021398547955674529e-01
2.021398547955674529e-01
2.021398547955674529e-01
1.910584638899503196e-01
1.910584638899503196e-01
1.925869316010699328e-01
1.925869316010699328e-01
1.925869316010699328e-01
2.067252579289262648e-01
2.067252579289262648e-01
1.979365685899885374e-01
1.979365685899885374e-01
1.979365685899885374e-01
1.914405808177302160e-01
1.914405808177302160e-01
1.975544516622086411e-01
1.975544516622086411e-01
1.975544516622086411e-01
2.025219717233473493e-01
2.025219717233473493e-01
1.937332823844096219e-01
1.937332823844096219e-01
1.937332823844096219e-01
2.036683225066870384e-01
2.036683225066870384e-01
1.960259839510890278e-01
1.960259839510890278e-01
1.960259839510890278e-01
1.990829193733282265e-01
1.990829193733282265e-01
1.887657623232709136e-01
1.887657623232709136e-01
1.887657623232709136e-01
1.880015284677111209e-01
1.880015284677111209e-01
1.998471532288880470e-01
1.998471532288880470e-01
1.998471532288880470e-01
1.899121131066106305e-01
1.899121131066106305e-01
1.857088269010317150e-01
1.857088269010317150e-01
1.857088269010317150e-01
1.979365685899885374e-01
1.979365685899885374e-01
1.944975162399694424e-01
1.944975162399694424e-01
1.944975162399694424e-01
2.063431410011463407e-01
2.063431410011463407e-01
1.952617500955292351e-01
1.952617500955292351e-01
1.952617500955292351e-01
1.834161253343523090e-01
1.834161253343523090e-01
2.032862055789071420e-01
2.032862055789071420e-01
2.032862055789071420e-01
1.937332823844096219e-01
1.937332823844096219e-01
1.895299961788307341e-01
1.895299961788307341e-01
1.895299961788307341e-01
1.967902178066488483e-01
1.967902178066488483e-01
1.918226977455101123e-01
1.918226977455101123e-01
1.918226977455101123e-01
1.891478792510508100e-01
1.891478792510508100e-01
1.964081008788689242e-01
1.964081008788689242e-01
1.964081008788689242e-01
1.941153993121895183e-01
1.941153993121895183e-01
1.826518914787925163e-01
1.826518914787925163e-01
1.826518914787925163e-01
1.990829193733282265e-01
1.990829193733282265e-01
1.845624761176920259e-01
1.845624761176920259e-01
1.845624761176920259e-01
2.063431410011463407e-01
2.063431410011463407e-01
1.826518914787925163e-01
1.826518914787925163e-01
1.826518914787925163e-01
1.910584638899503196e-01
1.910584638899503196e-01
1.983186855177684338e-01
1.983186855177684338e-01
1.983186855177684338e-01
1.941153993121895183e-01
1.941153993121895183e-01
2.002292701566679434e-01
2.002292701566679434e-01
2.002292701566679434e-01
1.837982422621322054e-01
1.837982422621322054e-01
2.009935040122277361e-01
2.009935040122277361e-01
2.009935040122277361e-01
1.979365685899885374e-01
1.979365685899885374e-01
1.929690485288498292e-01
1.929690485288498292e-01
1.929690485288498292e-01
1.990829193733282265e-01
1.990829193733282265e-01
2.029040886511272457e-01
2.029040886511272457e-01
2.029040886511272457e-01
1.937332823844096219e-01
1.937332823844096219e-01
1.837982422621322054e-01
1.837982422621322054e-01
1.837982422621322054e-01
1.948796331677493388e-01
1.948796331677493388e-01
1.853267099732518186e-01
1.853267099732518186e-01
1.853267099732518186e-01
1.975544516622086411e-01
1.975544516622086411e-01
1.857088269010317150e-01
1.857088269010317150e-01
1.857088269010317150e-01
1.860909438288116113e-01
1.860909438288116113e-01
1.872372946121513282e-01
1.872372946121513282e-01
1.872372946121513282e-01
2.059610240733664444e-01
2.059610240733664444e-01
1.883836453954910173e-01
1.883836453954910173e-01
1.883836453954910173e-01
1.887657623232709136e-01
1.887657623232709136e-01
2.002292701566679434e-01
2.002292701566679434e-01
2.002292701566679434e-01
2.021398547955674529e-01
2.021398547955674529e-01
2.025219717233473493e-01
2.025219717233473493e-01
2.025219717233473493e-01
1.925869316010699328e-01
1.925869316010699328e-01
2.017577378677875566e-01
2.017577378677875566e-01
2.017577378677875566e-01
2.055789071455865480e-01
2.055789071455865480e-01
2.067252579289262648e-01
2.067252579289262648e-01
2.067252579289262648e-01
2.094000764233855671e-01
2.094000764233855671e-01
1.975544516622086411e-01
1.975544516622086411e-01
1.975544516622086411e-01
1.998471532288880470e-01
1.998471532288880470e-01
2.128391287734046622e-01
2.128391287734046622e-01
2.136033626289644549e-01
2.136033626289644549e-01
2.136033626289644549e-01
2.139854795567443513e-01
2.139854795567443513e-01
2.277416889568207869e-01
2.277416889568207869e-01
