2.143675964845242754e-01
2.143675964845242754e-01
2.143675964845242754e-01
2.143675964845242754e-01
2.227741688956820787e-01
2.227741688956820787e-01
2.120748949178448695e-01
2.120748949178448695e-01
2.120748949178448695e-01
2.208635842567825691e-01
2.208635842567825691e-01
2.109285441345051526e-01
2.109285441345051526e-01
2.109285441345051526e-01
2.029040886511272457e-01
2.029040886511272457e-01
1.998471532288880470e-01
1.998471532288880470e-01
1.998471532288880470e-01
2.170424149789835777e-01
2.170424149789835777e-01
2.021398547955674529e-01
2.021398547955674529e-01
2.021398547955674529e-01
2.013756209400076325e-01
2.013756209400076325e-01
1.956438670233091315e-01
1.956438670233091315e-01
1.956438670233091315e-01
2.078716087122659539e-01
2.078716087122659539e-01
2.006113870844478397e-01
2.006113870844478397e-01
2.006113870844478397e-01
1.899121131066106305e-01
1.899121131066106305e-01
2.048146732900267553e-01
2.048146732900267553e-01
2.048146732900267553e-01
2.097821933511654635e-01
2.097821933511654635e-01
2.097821933511654635e-01
2.097821933511654635e-01
2.097821933511654635e-01
1.876194115399312246e-01
1.876194115399312246e-01
1.914405808177302160e-01
1.914405808177302160e-01
1.914405808177302160e-01
1.964081008788689242e-01
1.964081008788689242e-01
2.006113870844478397e-01
2.006113870844478397e-01
2.006113870844478397e-01
2.055789071455865480e-01
2.055789071455865480e-01
2.025219717233473493e-01
2.025219717233473493e-01
2.025219717233473493e-01
1.937332823844096219e-01
1.937332823844096219e-01
2.021398547955674529e-01
2.021398547955674529e-01
2.021398547955674529e-01
2.223920519679021823e-01
2.223920519679021823e-01
2.239205196790217678e-01
2.239205196790217678e-01
2.239205196790217678e-01
1.964081008788689242e-01
1.964081008788689242e-01
2.231562858234619751e-01
2.231562858234619751e-01
2.231562858234619751e-01
2.262132212457011737e-01
2.262132212457011737e-01
2.178066488345433704e-01
2.178066488345433704e-01
2.178066488345433704e-01
2.162781811234237572e-01
2.162781811234237572e-01
2.330913259457393916e-01
2.330913259457393916e-01
2.330913259457393916e-01
2.166602980512036813e-01
2.166602980512036813e-01
2.315628582346198061e-01
2.315628582346198061e-01
2.315628582346198061e-01
2.155139472678639645e-01
2.155139472678639645e-01
2.189529996178830595e-01
2.189529996178830595e-01
2.189529996178830595e-01
2.357661444401986939e-01
2.357661444401986939e-01
2.323270920901795988e-01
2.323270920901795988e-01
2.323270920901795988e-01
2.426442491402369117e-01
2.426442491402369117e-01
2.376767290790982035e-01
2.376767290790982035e-01
2.376767290790982035e-01
2.487581199847153091e-01
2.487581199847153091e-01
2.361482613679785902e-01
2.361482613679785902e-01
2.361482613679785902e-01
2.460833014902560067e-01
2.460833014902560067e-01
2.269774551012609942e-01
2.269774551012609942e-01
2.269774551012609942e-01
2.353840275124187975e-01
2.353840275124187975e-01
2.265953381734810979e-01
2.265953381734810979e-01
2.265953381734810979e-01
2.281238058846006833e-01
2.281238058846006833e-01
2.361482613679785902e-01
2.361482613679785902e-01
2.361482613679785902e-01
2.499044707680550259e-01
2.499044707680550259e-01
2.369124952235384107e-01
2.369124952235384107e-01
2.369124952235384107e-01
2.235384027512418714e-01
2.235384027512418714e-01
2.288880397401604760e-01
2.288880397401604760e-01
2.288880397401604760e-01
2.361482613679785902e-01
2.361482613679785902e-01
2.468475353458158272e-01
2.468475353458158272e-01
2.468475353458158272e-01
2.434084829957967044e-01
2.434084829957967044e-01
2.330913259457393916e-01
2.330913259457393916e-01
2.330913259457393916e-01
2.441727168513565249e-01
2.441727168513565249e-01
2.281238058846006833e-01
2.281238058846006833e-01
2.281238058846006833e-01
2.323270920901795988e-01
2.323270920901795988e-01
2.262132212457011737e-01
2.262132212457011737e-01
2.262132212457011737e-01
2.223920519679021823e-01
2.223920519679021823e-01
2.422621322124570153e-01
2.422621322124570153e-01
2.422621322124570153e-01
2.395873137179977130e-01
2.395873137179977130e-01
2.262132212457011737e-01
2.262132212457011737e-01
2.262132212457011737e-01
2.380588460068780998e-01
2.380588460068780998e-01
2.116927779900649731e-01
2.116927779900649731e-01
2.116927779900649731e-01
2.262132212457011737e-01
2.262132212457011737e-01
2.166602980512036813e-01
2.166602980512036813e-01
2.166602980512036813e-01
2.128391287734046622e-01
2.128391287734046622e-01
2.097821933511654635e-01
2.097821933511654635e-01
2.097821933511654635e-01
2.170424149789835777e-01
2.170424149789835777e-01
2.040504394344669348e-01
2.040504394344669348e-01
2.040504394344669348e-01
2.074894917844860576e-01
2.074894917844860576e-01
2.243026366068016919e-01
2.243026366068016919e-01
2.029040886511272457e-01
2.029040886511272457e-01
2.029040886511272457e-01
2.082537256400458503e-01
2.082537256400458503e-01
2.059610240733664444e-01
2.059610240733664444e-01
2.059610240733664444e-01
1.987008024455483302e-01
1.987008024455483302e-01
2.029040886511272457e-01
2.029040886511272457e-01
2.029040886511272457e-01
2.090179594956056430e-01
2.090179594956056430e-01
2.002292701566679434e-01
2.002292701566679434e-01
2.002292701566679434e-01
2.155139472678639645e-01
2.155139472678639645e-01
2.116927779900649731e-01
2.116927779900649731e-01
2.116927779900649731e-01
2.067252579289262648e-01
2.067252579289262648e-01
1.925869316010699328e-01
1.925869316010699328e-01
1.925869316010699328e-01
2.006113870844478397e-01
2.006113870844478397e-01
1.860909438288116113e-01
1.860909438288116113e-01
1.860909438288116113e-01
2.032862055789071420e-01
2.032862055789071420e-01
2.078716087122659539e-01
2.078716087122659539e-01
2.078716087122659539e-01
2.048146732900267553e-01
2.048146732900267553e-01
1.864730607565915077e-01
1.864730607565915077e-01
1.864730607565915077e-01
1.925869316010699328e-01
1.925869316010699328e-01
1.925869316010699328e-01
1.925869316010699328e-01
1.925869316010699328e-01
2.048146732900267553e-01
2.048146732900267553e-01
1.830340084065724127e-01
1.830340084065724127e-01
1.830340084065724127e-01
1.780664883454337044e-01
1.780664883454337044e-01
1.841803591899121018e-01
1.841803591899121018e-01
1.841803591899121018e-01
2.006113870844478397e-01
2.006113870844478397e-01
1.746274359954146094e-01
1.746274359954146094e-01
1.746274359954146094e-01
1.887657623232709136e-01
1.887657623232709136e-01
1.799770729843332140e-01
1.799770729843332140e-01
1.799770729843332140e-01
1.948796331677493388e-01
1.948796331677493388e-01
1.734810852120748925e-01
1.734810852120748925e-01
1.734810852120748925e-01
1.776843714176538080e-01
1.776843714176538080e-01
1.979365685899885374e-01
1.979365685899885374e-01
1.979365685899885374e-01
1.727168513565150998e-01
1.727168513565150998e-01
1.830340084065724127e-01
1.830340084065724127e-01
1.830340084065724127e-01
1.815055406954527994e-01
1.815055406954527994e-01
1.753916698509744021e-01
1.753916698509744021e-01
1.753916698509744021e-01
1.788307222009934971e-01
1.788307222009934971e-01
1.730989682842949962e-01
1.730989682842949962e-01
1.730989682842949962e-01
1.960259839510890278e-01
1.960259839510890278e-01
1.715705005731753829e-01
1.715705005731753829e-01
1.715705005731753829e-01
1.784486052732136008e-01
1.784486052732136008e-01
1.788307222009934971e-01
1.788307222009934971e-01
1.788307222009934971e-01
1.929690485288498292e-01
1.929690485288498292e-01
1.906763469621704232e-01
1.906763469621704232e-01
1.906763469621704232e-01
2.013756209400076325e-01
2.013756209400076325e-01
2.101643102789453599e-01
2.101643102789453599e-01
2.101643102789453599e-01
2.105464272067252562e-01
2.105464272067252562e-01
2.170424149789835777e-01
2.170424149789835777e-01
2.170424149789835777e-01
2.185708826901031632e-01
2.185708826901031632e-01
2.181887657623232668e-01
2.181887657623232668e-01
2.181887657623232668e-01
2.181887657623232668e-01
2.181887657623232668e-01
2.231562858234619751e-01
2.231562858234619751e-01
2.231562858234619751e-01
2.392051967902178167e-01
2.392051967902178167e-01
2.399694306457776094e-01
2.399694306457776094e-01
2.399694306457776094e-01
2.235384027512418714e-01
2.235384027512418714e-01
2.479938861291555163e-01
2.479938861291555163e-01
2.479938861291555163e-01
2.502865876958349500e-01
2.502865876958349500e-01
2.644249140236912266e-01
2.644249140236912266e-01
2.644249140236912266e-01
2.472296522735957236e-01
2.472296522735957236e-01
2.495223538402751295e-01
2.495223538402751295e-01
2.495223538402751295e-01
2.724493695070691612e-01
2.724493695070691612e-01
2.797095911348873032e-01
2.797095911348873032e-01
2.797095911348873032e-01
2.949942682460833243e-01
2.949942682460833243e-01
2.858234619793657005e-01
2.858234619793657005e-01
2.858234619793657005e-01
2.869698127627053896e-01
2.869698127627053896e-01
3.083683607183798081e-01
3.083683607183798081e-01
3.083683607183798081e-01
3.198318685517768656e-01
3.198318685517768656e-01
3.129537638517386200e-01
3.129537638517386200e-01
3.129537638517386200e-01
3.301490256018341785e-01
3.301490256018341785e-01
3.202139854795567619e-01
3.202139854795567619e-01
3.202139854795567619e-01
3.293847917462743857e-01
3.293847917462743857e-01
3.366450133740924722e-01
3.366450133740924722e-01
3.366450133740924722e-01
3.458158196408100959e-01
3.458158196408100959e-01
3.442873519296905105e-01
3.442873519296905105e-01
3.442873519296905105e-01
3.427588842185708695e-01
3.427588842185708695e-01
3.633931983186854953e-01
3.633931983186854953e-01
3.633931983186854953e-01
3.534581581964080788e-01
3.534581581964080788e-01
3.557508597630875125e-01
3.557508597630875125e-01
3.557508597630875125e-01
3.614826136797860134e-01
3.614826136797860134e-01
3.729461215131830154e-01
3.729461215131830154e-01
3.729461215131830154e-01
3.821169277799006392e-01
3.821169277799006392e-01
3.695070691631639481e-01
3.695070691631639481e-01
3.695070691631639481e-01
3.935804356132976967e-01
3.935804356132976967e-01
4.012227741688956795e-01
4.012227741688956795e-01
3.817348108521207428e-01
3.817348108521207428e-01
3.817348108521207428e-01
3.882307986243790365e-01
3.882307986243790365e-01
4.046618265189148023e-01
4.046618265189148023e-01
4.046618265189148023e-01
3.905235001910584702e-01
3.905235001910584702e-01
4.153611004967520115e-01
4.153611004967520115e-01
4.153611004967520115e-01
4.096293465800535105e-01
4.096293465800535105e-01
4.061902942300343877e-01
4.061902942300343877e-01
4.061902942300343877e-01
4.084829957967138214e-01
4.084829957967138214e-01
3.989300726022163013e-01
3.989300726022163013e-01
3.989300726022163013e-01
4.096293465800535105e-01
4.096293465800535105e-01
4.142147497134123224e-01
4.142147497134123224e-01
4.142147497134123224e-01
4.283530760412686544e-01
4.283530760412686544e-01
4.100114635078334069e-01
4.100114635078334069e-01
4.100114635078334069e-01
4.294994268246083435e-01
4.294994268246083435e-01
4.054260603744745950e-01
4.054260603744745950e-01
4.054260603744745950e-01
4.126862820022926814e-01
4.126862820022926814e-01
4.283530760412686544e-01
4.283530760412686544e-01
4.283530760412686544e-01
4.314100114635078254e-01
4.314100114635078254e-01
4.379059992357661191e-01
4.379059992357661191e-01
4.379059992357661191e-01
4.291173098968284472e-01
4.291173098968284472e-01
4.230034390523499943e-01
4.230034390523499943e-01
4.230034390523499943e-01
4.126862820022926814e-01
4.126862820022926814e-01
4.352311807413068445e-01
4.352311807413068445e-01
4.352311807413068445e-01
4.119220481467328887e-01
4.119220481467328887e-01
4.218570882690103052e-01
4.218570882690103052e-01
4.218570882690103052e-01
4.409629346580053455e-01
4.409629346580053455e-01
4.417271685135651382e-01
4.417271685135651382e-01
4.417271685135651382e-01
4.207107374856706161e-01
4.207107374856706161e-01
4.214749713412304089e-01
4.214749713412304089e-01
4.214749713412304089e-01
4.340848299579671554e-01
4.340848299579671554e-01
4.210928544134505125e-01
4.210928544134505125e-01
4.210928544134505125e-01
4.325563622468475145e-01
4.325563622468475145e-01
4.356132976690867409e-01
4.356132976690867409e-01
4.356132976690867409e-01
4.329384791746274108e-01
4.329384791746274108e-01
4.428735192969048273e-01
4.428735192969048273e-01
4.428735192969048273e-01
4.207107374856706161e-01
4.207107374856706161e-01
4.176538020634313897e-01
4.176538020634313897e-01
4.176538020634313897e-01
4.321742453190676181e-01
4.321742453190676181e-01
4.245319067634696353e-01
4.245319067634696353e-01
4.245319067634696353e-01
4.149789835689721151e-01
4.149789835689721151e-01
4.325563622468475145e-01
4.325563622468475145e-01
4.325563622468475145e-01
4.306457776079480326e-01
4.306457776079480326e-01
4.260603744745892207e-01
4.260603744745892207e-01
4.260603744745892207e-01
4.096293465800535105e-01
4.096293465800535105e-01
4.241497898356897389e-01
4.241497898356897389e-01
4.241497898356897389e-01
4.088651127244937178e-01
4.088651127244937178e-01
4.004585403133358867e-01
4.004585403133358867e-01
4.004585403133358867e-01
4.203286205578907198e-01
4.203286205578907198e-01
4.031333588077951613e-01
4.031333588077951613e-01
4.031333588077951613e-01
4.103935804356133032e-01
4.103935804356133032e-01
4.168895682078715970e-01
4.168895682078715970e-01
4.168895682078715970e-01
4.046618265189148023e-01
4.046618265189148023e-01
3.977837218188765567e-01
3.977837218188765567e-01
3.977837218188765567e-01
4.138326327856324260e-01
4.138326327856324260e-01
3.912877340466182630e-01
3.912877340466182630e-01
3.912877340466182630e-01
4.042797095911349059e-01
4.042797095911349059e-01
3.886129155521589329e-01
3.886129155521589329e-01
3.886129155521589329e-01
3.966373710355368676e-01
3.966373710355368676e-01
3.912877340466182630e-01
3.912877340466182630e-01
3.912877340466182630e-01
3.974016048910966603e-01
3.974016048910966603e-01
3.786778754298815164e-01
3.786778754298815164e-01
3.786778754298815164e-01
3.737103553687428081e-01
3.737103553687428081e-01
3.794421092854413646e-01
3.794421092854413646e-01
3.794421092854413646e-01
3.737103553687428081e-01
3.737103553687428081e-01
3.714176538020634299e-01
3.714176538020634299e-01
3.714176538020634299e-01
3.809705769965609501e-01
3.809705769965609501e-01
3.645395491020252399e-01
3.645395491020252399e-01
3.645395491020252399e-01
3.855559801299197620e-01
3.855559801299197620e-01
3.633931983186854953e-01
3.633931983186854953e-01
3.633931983186854953e-01
3.584256782575467870e-01
3.584256782575467870e-01
3.553687428353076161e-01
3.553687428353076161e-01
3.553687428353076161e-01
3.695070691631639481e-01
3.695070691631639481e-01
3.534581581964080788e-01
3.534581581964080788e-01
3.534581581964080788e-01
3.515475735575085969e-01
3.515475735575085969e-01
3.546045089797478234e-01
3.546045089797478234e-01
3.546045089797478234e-01
3.477264042797095778e-01
3.477264042797095778e-01
3.515475735575085969e-01
3.515475735575085969e-01
3.515475735575085969e-01
3.435231180741306622e-01
3.435231180741306622e-01
3.461979365685899923e-01
3.461979365685899923e-01
3.461979365685899923e-01
3.232709209017959329e-01
3.232709209017959329e-01
3.167749331295376392e-01
3.167749331295376392e-01
3.247993886129155738e-01
3.247993886129155738e-01
3.247993886129155738e-01
3.305311425296140748e-01
3.305311425296140748e-01
3.102789453572793454e-01
3.102789453572793454e-01
3.102789453572793454e-01
3.045471914405808445e-01
3.045471914405808445e-01
3.125716469239587236e-01
3.125716469239587236e-01
3.125716469239587236e-01
2.995796713794421362e-01
2.995796713794421362e-01
2.923194497516239942e-01
2.923194497516239942e-01
2.923194497516239942e-01
3.121895299961788273e-01
3.121895299961788273e-01
2.991975544516621843e-01
2.991975544516621843e-01
2.991975544516621843e-01
2.850592281238059078e-01
2.850592281238059078e-01
2.892625143293847678e-01
2.892625143293847678e-01
2.892625143293847678e-01
2.884982804738249751e-01
2.884982804738249751e-01
2.972869698127627025e-01
2.972869698127627025e-01
2.972869698127627025e-01
2.743599541459686431e-01
2.743599541459686431e-01
2.888803974016048715e-01
2.888803974016048715e-01
2.888803974016048715e-01
2.758884218570882840e-01
2.758884218570882840e-01
2.724493695070691612e-01
2.724493695070691612e-01
2.724493695070691612e-01
2.812380588460068886e-01
2.812380588460068886e-01
2.793274742071073513e-01
2.793274742071073513e-01
2.793274742071073513e-01
2.609858616736721593e-01
2.609858616736721593e-01
2.793274742071073513e-01
2.793274742071073513e-01
2.793274742071073513e-01
2.514329384791746391e-01
2.514329384791746391e-01
2.491402369124952332e-01
2.491402369124952332e-01
2.491402369124952332e-01
2.659533817348108675e-01
2.659533817348108675e-01
2.686282002292701421e-01
2.686282002292701421e-01
2.686282002292701421e-01
2.479938861291555163e-01
2.479938861291555163e-01
2.395873137179977130e-01
2.395873137179977130e-01
2.395873137179977130e-01
2.544898739014138100e-01
2.544898739014138100e-01
2.422621322124570153e-01
2.422621322124570153e-01
2.422621322124570153e-01
2.606037447458922629e-01
2.606037447458922629e-01
2.376767290790982035e-01
2.376767290790982035e-01
2.376767290790982035e-01
2.246847535345815883e-01
2.246847535345815883e-01
2.338555598012991843e-01
2.338555598012991843e-01
2.338555598012991843e-01
2.491402369124952332e-01
2.491402369124952332e-01
2.311807413068398820e-01
2.311807413068398820e-01
2.311807413068398820e-01
2.254489873901413810e-01
2.254489873901413810e-01
2.246847535345815883e-01
2.246847535345815883e-01
2.246847535345815883e-01
2.193351165456629837e-01
2.193351165456629837e-01
2.193351165456629837e-01
2.193351165456629837e-01
2.193351165456629837e-01
2.281238058846006833e-01
2.281238058846006833e-01
2.361482613679785902e-01
2.361482613679785902e-01
2.361482613679785902e-01
2.178066488345433704e-01
2.178066488345433704e-01
2.361482613679785902e-01
2.361482613679785902e-01
2.361482613679785902e-01
2.350019105846389011e-01
2.350019105846389011e-01
2.178066488345433704e-01
2.178066488345433704e-01
2.178066488345433704e-01
2.120748949178448695e-01
2.120748949178448695e-01
2.189529996178830595e-01
2.189529996178830595e-01
2.189529996178830595e-01
2.227741688956820787e-01
2.227741688956820787e-01
2.116927779900649731e-01
2.116927779900649731e-01
2.116927779900649731e-01
2.029040886511272457e-01
2.029040886511272457e-01
2.002292701566679434e-01
2.002292701566679434e-01
2.002292701566679434e-01
2.029040886511272457e-01
2.029040886511272457e-01
2.021398547955674529e-01
2.021398547955674529e-01
2.021398547955674529e-01
2.139854795567443513e-01
2.139854795567443513e-01
2.185708826901031632e-01
2.185708826901031632e-01
2.185708826901031632e-01
2.006113870844478397e-01
2.006113870844478397e-01
2.086358425678257467e-01
2.086358425678257467e-01
2.086358425678257467e-01
1.983186855177684338e-01
1.983186855177684338e-01
2.189529996178830595e-01
2.189529996178830595e-01
2.189529996178830595e-01
2.120748949178448695e-01
2.120748949178448695e-01
1.918226977455101123e-01
1.918226977455101123e-01
1.918226977455101123e-01
2.036683225066870384e-01
2.036683225066870384e-01
2.116927779900649731e-01
2.116927779900649731e-01
2.116927779900649731e-01
2.006113870844478397e-01
2.006113870844478397e-01
2.025219717233473493e-01
2.025219717233473493e-01
2.025219717233473493e-01
1.883836453954910173e-01
1.883836453954910173e-01
2.074894917844860576e-01
2.074894917844860576e-01
2.074894917844860576e-01
1.998471532288880470e-01
1.998471532288880470e-01
1.906763469621704232e-01
1.906763469621704232e-01
1.906763469621704232e-01
1.822697745510126199e-01
1.822697745510126199e-01
1.994650363011081506e-01
1.994650363011081506e-01
1.994650363011081506e-01
1.979365685899885374e-01
1.979365685899885374e-01
1.933511654566297255e-01
1.933511654566297255e-01
1.933511654566297255e-01
1.929690485288498292e-01
1.929690485288498292e-01
1.700420328620557975e-01
1.700420328620557975e-01
1.700420328620557975e-01
1.964081008788689242e-01
1.964081008788689242e-01
1.742453190676346853e-01
1.742453190676346853e-01
1.742453190676346853e-01
1.837982422621322054e-01
1.837982422621322054e-01
1.673672143675964952e-01
1.673672143675964952e-01
1.673672143675964952e-01
1.979365685899885374e-01
1.979365685899885374e-01
1.837982422621322054e-01
1.837982422621322054e-01
1.837982422621322054e-01
1.669850974398165711e-01
1.669850974398165711e-01
1.925869316010699328e-01
1.925869316010699328e-01
1.646923958731371929e-01
1.646923958731371929e-01
1.646923958731371929e-01
1.727168513565150998e-01
1.727168513565150998e-01
1.849445930454719222e-01
1.849445930454719222e-01
1.849445930454719222e-01
1.826518914787925163e-01
1.826518914787925163e-01
1.868551776843714041e-01
1.868551776843714041e-01
1.868551776843714041e-01
1.719526175009552793e-01
1.719526175009552793e-01
1.631639281620175796e-01
1.631639281620175796e-01
1.631639281620175796e-01
1.822697745510126199e-01
1.822697745510126199e-01
1.608712265953381737e-01
1.608712265953381737e-01
1.608712265953381737e-01
1.578142911730989750e-01
1.578142911730989750e-01
1.811234237676729031e-01
1.811234237676729031e-01
1.811234237676729031e-01
1.792128391287733935e-01
1.792128391287733935e-01
1.750095529231945057e-01
1.750095529231945057e-01
1.750095529231945057e-01
1.505540695452808608e-01
1.505540695452808608e-01
1.505540695452808608e-01
1.505540695452808608e-01
1.505540695452808608e-01
1.654566297286969856e-01
1.654566297286969856e-01
1.685135651509361843e-01
1.685135651509361843e-01
1.685135651509361843e-01
1.474971341230416622e-01
1.474971341230416622e-01
1.562858234619793618e-01
1.562858234619793618e-01
1.562858234619793618e-01
1.440580817730225394e-01
1.440580817730225394e-01
1.631639281620175796e-01
1.631639281620175796e-01
1.631639281620175796e-01
1.685135651509361843e-01
1.685135651509361843e-01
1.387084447841039347e-01
1.387084447841039347e-01
1.387084447841039347e-01
1.425296140619029539e-01
1.425296140619029539e-01
1.646923958731371929e-01
1.646923958731371929e-01
1.646923958731371929e-01
1.574321742453190787e-01
1.574321742453190787e-01
1.474971341230416622e-01
1.474971341230416622e-01
1.474971341230416622e-01
1.402369124952235480e-01
1.402369124952235480e-01
1.604891096675582773e-01
1.604891096675582773e-01
1.604891096675582773e-01
1.356515093618647361e-01
1.356515093618647361e-01
1.452044325563622562e-01
1.452044325563622562e-01
1.452044325563622562e-01
1.387084447841039347e-01
1.387084447841039347e-01
1.639281620175773724e-01
1.639281620175773724e-01
1.639281620175773724e-01
1.570500573175391545e-01
1.570500573175391545e-01
1.543752388230798522e-01
1.543752388230798522e-01
1.543752388230798522e-01
1.333588077951853301e-01
1.333588077951853301e-01
1.539931218952999559e-01
1.539931218952999559e-01
1.539931218952999559e-01
1.578142911730989750e-01
1.578142911730989750e-01
1.425296140619029539e-01
1.425296140619029539e-01
1.425296140619029539e-01
1.352693924340848397e-01
1.352693924340848397e-01
1.455865494841421526e-01
1.455865494841421526e-01
1.455865494841421526e-01
1.383263278563240384e-01
1.383263278563240384e-01
1.322124570118456133e-01
1.322124570118456133e-01
1.322124570118456133e-01
1.509361864730607572e-01
1.509361864730607572e-01
1.517004203286205499e-01
1.517004203286205499e-01
1.517004203286205499e-01
1.448223156285823598e-01
1.448223156285823598e-01
1.486434849063813513e-01
1.486434849063813513e-01
1.486434849063813513e-01
1.398547955674436516e-01
1.398547955674436516e-01
1.253343523118074232e-01
1.253343523118074232e-01
1.253343523118074232e-01
1.509361864730607572e-01
1.509361864730607572e-01
1.272449369507069050e-01
1.272449369507069050e-01
1.272449369507069050e-01
1.413832632785632371e-01
1.413832632785632371e-01
1.425296140619029539e-01
1.425296140619029539e-01
1.425296140619029539e-01
1.318303400840657169e-01
1.318303400840657169e-01
1.306839893007260278e-01
1.306839893007260278e-01
1.306839893007260278e-01
1.303018723729461315e-01
1.303018723729461315e-01
1.329766908674054338e-01
1.329766908674054338e-01
1.329766908674054338e-01
1.283912877340466219e-01
1.283912877340466219e-01
1.280091708062667255e-01
1.280091708062667255e-01
1.280091708062667255e-01
1.268628200229270087e-01
1.268628200229270087e-01
1.501719526175009645e-01
1.501719526175009645e-01
1.501719526175009645e-01
1.226595338173481070e-01
1.226595338173481070e-01
1.249522353840275130e-01
1.249522353840275130e-01
1.249522353840275130e-01
1.280091708062667255e-01
1.280091708062667255e-01
1.367978601452044252e-01
1.367978601452044252e-01
1.367978601452044252e-01
1.360336262896446324e-01
1.360336262896446324e-01
1.348872755063049156e-01
1.348872755063049156e-01
1.348872755063049156e-01
1.413832632785632371e-01
1.413832632785632371e-01
1.432938479174627466e-01
1.432938479174627466e-01
1.432938479174627466e-01
1.333588077951853301e-01
1.333588077951853301e-01
1.325945739396255374e-01
1.325945739396255374e-01
1.325945739396255374e-01
1.413832632785632371e-01
1.413832632785632371e-01
1.448223156285823598e-01
1.448223156285823598e-01
1.448223156285823598e-01
1.295376385173863110e-01
1.295376385173863110e-01
1.390905617118838311e-01
1.390905617118838311e-01
1.390905617118838311e-01
1.478792510508215585e-01
1.478792510508215585e-01
1.497898356897210681e-01
1.497898356897210681e-01
1.497898356897210681e-01
1.367978601452044252e-01
1.367978601452044252e-01
1.283912877340466219e-01
1.283912877340466219e-01
1.283912877340466219e-01
1.505540695452808608e-01
1.505540695452808608e-01
1.474971341230416622e-01
1.474971341230416622e-01
1.348872755063049156e-01
1.348872755063049156e-01
1.348872755063049156e-01
1.387084447841039347e-01
1.387084447841039347e-01
1.517004203286205499e-01
1.517004203286205499e-01
1.517004203286205499e-01
1.417653802063431334e-01
1.417653802063431334e-01
1.539931218952999559e-01
1.539931218952999559e-01
1.539931218952999559e-01
1.276270538784868291e-01
1.276270538784868291e-01
1.513183034008406536e-01
1.513183034008406536e-01
1.513183034008406536e-01
1.471150171952617380e-01
1.471150171952617380e-01
1.367978601452044252e-01
1.367978601452044252e-01
1.367978601452044252e-01
1.337409247229652265e-01
1.337409247229652265e-01
1.425296140619029539e-01
1.425296140619029539e-01
1.425296140619029539e-01
1.394726786396637275e-01
1.394726786396637275e-01
1.520825372564004463e-01
1.520825372564004463e-01
1.520825372564004463e-01
1.318303400840657169e-01
1.318303400840657169e-01
1.360336262896446324e-01
1.360336262896446324e-01
1.360336262896446324e-01
1.299197554451662073e-01
1.299197554451662073e-01
1.383263278563240384e-01
1.383263278563240384e-01
1.383263278563240384e-01
1.482613679786014549e-01
1.482613679786014549e-01
1.314482231562858205e-01
1.314482231562858205e-01
1.314482231562858205e-01
1.520825372564004463e-01
1.520825372564004463e-01
1.467329002674818417e-01
1.467329002674818417e-01
1.467329002674818417e-01
1.417653802063431334e-01
1.417653802063431334e-01
1.383263278563240384e-01
1.383263278563240384e-01
1.383263278563240384e-01
1.497898356897210681e-01
1.497898356897210681e-01
1.497898356897210681e-01
1.497898356897210681e-01
1.497898356897210681e-01
1.486434849063813513e-01
1.486434849063813513e-01
1.639281620175773724e-01
1.639281620175773724e-01
1.639281620175773724e-01
1.509361864730607572e-01
1.509361864730607572e-01
1.528467711119602668e-01
1.528467711119602668e-01
1.528467711119602668e-01
1.425296140619029539e-01
1.425296140619029539e-01
1.398547955674436516e-01
1.398547955674436516e-01
1.398547955674436516e-01
1.635460450897974760e-01
1.635460450897974760e-01
1.490256018341612476e-01
1.490256018341612476e-01
1.490256018341612476e-01
1.402369124952235480e-01
1.402369124952235480e-01
1.448223156285823598e-01
1.448223156285823598e-01
1.448223156285823598e-01
1.620175773786778628e-01
1.620175773786778628e-01
1.497898356897210681e-01
1.497898356897210681e-01
1.497898356897210681e-01
1.410011463507833407e-01
1.410011463507833407e-01
1.646923958731371929e-01
1.646923958731371929e-01
1.646923958731371929e-01
1.585785250286587678e-01
1.585785250286587678e-01
1.559037065341994654e-01
1.559037065341994654e-01
1.559037065341994654e-01
1.452044325563622562e-01
1.452044325563622562e-01
1.517004203286205499e-01
1.517004203286205499e-01
1.517004203286205499e-01
1.734810852120748925e-01
1.734810852120748925e-01
1.543752388230798522e-01
1.543752388230798522e-01
1.543752388230798522e-01
1.616354604508979664e-01
1.616354604508979664e-01
1.822697745510126199e-01
1.822697745510126199e-01
1.822697745510126199e-01
1.826518914787925163e-01
1.826518914787925163e-01
1.826518914787925163e-01
1.826518914787925163e-01
1.826518914787925163e-01
1.688956820787160806e-01
1.688956820787160806e-01
1.734810852120748925e-01
1.734810852120748925e-01
1.734810852120748925e-01
1.792128391287733935e-01
1.792128391287733935e-01
2.101643102789453599e-01
2.101643102789453599e-01
2.101643102789453599e-01
1.937332823844096219e-01
1.937332823844096219e-01
2.101643102789453599e-01
2.101643102789453599e-01
2.101643102789453599e-01
2.124570118456247658e-01
2.124570118456247658e-01
2.285059228123805797e-01
2.285059228123805797e-01
2.285059228123805797e-01
2.418800152846771190e-01
2.418800152846771190e-01
2.384409629346579962e-01
2.384409629346579962e-01
2.384409629346579962e-01
2.453190676346962140e-01
2.453190676346962140e-01
2.602216278181123665e-01
2.602216278181123665e-01
2.602216278181123665e-01
2.701566679403897830e-01
2.701566679403897830e-01
2.609858616736721593e-01
2.609858616736721593e-01
2.609858616736721593e-01
2.663354986625907639e-01
2.663354986625907639e-01
2.670997325181505566e-01
2.670997325181505566e-01
2.670997325181505566e-01
2.877340466182651824e-01
2.877340466182651824e-01
2.934658005349636833e-01
2.934658005349636833e-01
2.934658005349636833e-01
2.869698127627053896e-01
2.869698127627053896e-01
3.167749331295376392e-01
3.167749331295376392e-01
3.167749331295376392e-01
3.228888039740160365e-01
3.228888039740160365e-01
3.290026748184944339e-01
3.290026748184944339e-01
3.290026748184944339e-01
3.152464654184180537e-01
3.152464654184180537e-01
3.305311425296140748e-01
3.305311425296140748e-01
3.305311425296140748e-01
3.343523118074130940e-01
3.343523118074130940e-01
3.312953763851738676e-01
3.312953763851738676e-01
3.312953763851738676e-01
3.446694688574704069e-01
3.446694688574704069e-01
3.618647306075659098e-01
3.618647306075659098e-01
3.618647306075659098e-01
3.706534199465036372e-01
3.706534199465036372e-01
3.687428353076040999e-01
3.687428353076040999e-01
3.687428353076040999e-01
3.775315246465418273e-01
3.775315246465418273e-01
3.740924722965227600e-01
3.740924722965227600e-01
3.782957585021016200e-01
3.782957585021016200e-01
3.782957585021016200e-01
3.679786014520443072e-01
3.679786014520443072e-01
3.729461215131830154e-01
3.729461215131830154e-01
3.729461215131830154e-01
3.928162017577378484e-01
3.928162017577378484e-01
3.832632785632403283e-01
3.832632785632403283e-01
3.832632785632403283e-01
3.939625525410775930e-01
3.939625525410775930e-01
3.931983186855177448e-01
3.931983186855177448e-01
3.931983186855177448e-01
4.119220481467328887e-01
4.119220481467328887e-01
3.928162017577378484e-01
3.928162017577378484e-01
3.928162017577378484e-01
4.142147497134123224e-01
4.142147497134123224e-01
4.023691249522353686e-01
4.023691249522353686e-01
4.023691249522353686e-01
4.038975926633550095e-01
4.038975926633550095e-01
3.993121895299961976e-01
3.993121895299961976e-01
3.993121895299961976e-01
4.046618265189148023e-01
4.046618265189148023e-01
4.111578142911730960e-01
4.111578142911730960e-01
4.111578142911730960e-01
4.061902942300343877e-01
4.061902942300343877e-01
4.252961406190294280e-01
4.252961406190294280e-01
4.252961406190294280e-01
4.073366450133740768e-01
4.073366450133740768e-01
4.073366450133740768e-01
4.073366450133740768e-01
4.073366450133740768e-01
4.233855559801299462e-01
4.233855559801299462e-01
4.298815437523882399e-01
4.298815437523882399e-01
4.298815437523882399e-01
4.130683989300725778e-01
4.130683989300725778e-01
4.310278945357279290e-01
4.310278945357279290e-01
4.310278945357279290e-01
4.130683989300725778e-01
4.130683989300725778e-01
4.168895682078715970e-01
4.168895682078715970e-01
4.168895682078715970e-01
4.340848299579671554e-01
4.340848299579671554e-01
4.283530760412686544e-01
4.283530760412686544e-01
4.283530760412686544e-01
4.317921283912877217e-01
4.317921283912877217e-01
4.359954145968666372e-01
4.359954145968666372e-01
4.359954145968666372e-01
4.291173098968284472e-01
4.291173098968284472e-01
4.107756973633931996e-01
4.107756973633931996e-01
4.107756973633931996e-01
4.111578142911730960e-01
4.111578142911730960e-01
4.367596484524264300e-01
4.367596484524264300e-01
4.367596484524264300e-01
4.359954145968666372e-01
4.359954145968666372e-01
4.249140236912495316e-01
4.249140236912495316e-01
4.249140236912495316e-01
4.191822697745510307e-01
4.191822697745510307e-01
4.279709591134887026e-01
4.279709591134887026e-01
4.279709591134887026e-01
4.218570882690103052e-01
4.218570882690103052e-01
4.126862820022926814e-01
4.126862820022926814e-01
4.126862820022926814e-01
4.157432174245319079e-01
4.157432174245319079e-01
4.306457776079480326e-01
4.306457776079480326e-01
4.306457776079480326e-01
4.260603744745892207e-01
4.260603744745892207e-01
4.119220481467328887e-01
4.119220481467328887e-01
4.119220481467328887e-01
4.272067252579289098e-01
4.272067252579289098e-01
4.004585403133358867e-01
4.004585403133358867e-01
4.004585403133358867e-01
4.138326327856324260e-01
4.138326327856324260e-01
4.207107374856706161e-01
4.207107374856706161e-01
4.207107374856706161e-01
4.203286205578907198e-01
4.203286205578907198e-01
4.042797095911349059e-01
4.042797095911349059e-01
4.042797095911349059e-01
4.092472296522736142e-01
4.092472296522736142e-01
3.985479556744364049e-01
3.985479556744364049e-01
3.985479556744364049e-01
3.962552541077569712e-01
3.962552541077569712e-01
3.928162017577378484e-01
3.928162017577378484e-01
3.928162017577378484e-01
4.065724111578142841e-01
4.065724111578142841e-01
3.905235001910584702e-01
3.905235001910584702e-01
3.905235001910584702e-01
3.901413832632785739e-01
3.901413832632785739e-01
3.889950324799388848e-01
3.889950324799388848e-01
3.889950324799388848e-01
4.050439434466946986e-01
4.050439434466946986e-01
3.824990447076805355e-01
3.824990447076805355e-01
3.824990447076805355e-01
3.786778754298815164e-01
3.786778754298815164e-01
3.935804356132976967e-01
3.935804356132976967e-01
3.935804356132976967e-01
3.901413832632785739e-01
3.901413832632785739e-01
3.905235001910584702e-01
3.905235001910584702e-01
3.905235001910584702e-01
3.916698509743981593e-01
3.916698509743981593e-01
3.886129155521589329e-01
3.886129155521589329e-01
3.886129155521589329e-01
3.591899121131066352e-01
3.591899121131066352e-01
3.786778754298815164e-01
3.786778754298815164e-01
3.786778754298815164e-01
3.668322506687046181e-01
3.668322506687046181e-01
3.702713030187237409e-01
3.702713030187237409e-01
3.702713030187237409e-01
3.626289644631257025e-01
3.626289644631257025e-01
3.614826136797860134e-01
3.614826136797860134e-01
3.614826136797860134e-01
3.427588842185708695e-01
3.427588842185708695e-01
3.412304165074512841e-01
3.412304165074512841e-01
3.412304165074512841e-01
3.519296904852884933e-01
3.519296904852884933e-01
3.328238440962934530e-01
3.328238440962934530e-01
3.328238440962934530e-01
3.328238440962934530e-01
3.328238440962934530e-01
3.282384409629346411e-01
3.282384409629346411e-01
3.282384409629346411e-01
3.439052350019105586e-01
3.439052350019105586e-01
3.244172716851356775e-01
3.244172716851356775e-01
3.244172716851356775e-01
3.163928162017577428e-01
3.163928162017577428e-01
3.274742071073748484e-01
3.274742071073748484e-01
3.274742071073748484e-01
3.152464654184180537e-01
3.152464654184180537e-01
3.106610622850592418e-01
3.106610622850592418e-01
3.217424531906763474e-01
3.217424531906763474e-01
3.217424531906763474e-01
3.087504776461597045e-01
3.087504776461597045e-01
3.045471914405808445e-01
3.045471914405808445e-01
3.045471914405808445e-01
3.118074130683989309e-01
3.118074130683989309e-01
2.862055789071455969e-01
2.862055789071455969e-01
2.862055789071455969e-01
2.812380588460068886e-01
2.812380588460068886e-01
2.923194497516239942e-01
2.923194497516239942e-01
2.923194497516239942e-01
2.766526557126480768e-01
2.766526557126480768e-01
2.697745510126098312e-01
2.697745510126098312e-01
2.697745510126098312e-01
2.846771111960260114e-01
2.846771111960260114e-01
2.835307604126862668e-01
2.835307604126862668e-01
2.835307604126862668e-01
2.663354986625907639e-01
2.663354986625907639e-01
2.651891478792510748e-01
2.651891478792510748e-01
2.651891478792510748e-01
2.518150554069545355e-01
2.518150554069545355e-01
2.594573939625525183e-01
2.594573939625525183e-01
2.594573939625525183e-01
2.518150554069545355e-01
2.518150554069545355e-01
2.521971723347344319e-01
2.521971723347344319e-01
2.521971723347344319e-01
2.376767290790982035e-01
2.376767290790982035e-01
2.426442491402369117e-01
2.426442491402369117e-01
2.426442491402369117e-01
2.418800152846771190e-01
2.418800152846771190e-01
2.357661444401986939e-01
2.357661444401986939e-01
2.357661444401986939e-01
2.250668704623614846e-01
2.250668704623614846e-01
2.235384027512418714e-01
2.235384027512418714e-01
2.235384027512418714e-01
2.361482613679785902e-01
2.361482613679785902e-01
2.384409629346579962e-01
2.384409629346579962e-01
2.384409629346579962e-01
2.384409629346579962e-01
2.384409629346579962e-01
2.376767290790982035e-01
2.376767290790982035e-01
2.376767290790982035e-01
2.285059228123805797e-01
2.285059228123805797e-01
2.086358425678257467e-01
2.086358425678257467e-01
2.086358425678257467e-01
2.323270920901795988e-01
2.323270920901795988e-01
2.269774551012609942e-01
2.269774551012609942e-01
2.269774551012609942e-01
2.235384027512418714e-01
2.235384027512418714e-01
2.181887657623232668e-01
2.181887657623232668e-01
2.181887657623232668e-01
2.074894917844860576e-01
2.074894917844860576e-01
2.002292701566679434e-01
2.002292701566679434e-01
2.002292701566679434e-01
1.998471532288880470e-01
1.998471532288880470e-01
2.158960641956438609e-01
2.158960641956438609e-01
2.158960641956438609e-01
2.059610240733664444e-01
2.059610240733664444e-01
2.170424149789835777e-01
2.170424149789835777e-01
2.170424149789835777e-01
1.914405808177302160e-01
1.914405808177302160e-01
1.887657623232709136e-01
1.887657623232709136e-01
1.887657623232709136e-01
2.055789071455865480e-01
2.055789071455865480e-01
1.937332823844096219e-01
1.937332823844096219e-01
1.937332823844096219e-01
2.002292701566679434e-01
2.002292701566679434e-01
2.051967902178066516e-01
2.051967902178066516e-01
2.051967902178066516e-01
1.895299961788307341e-01
1.895299961788307341e-01
1.948796331677493388e-01
1.948796331677493388e-01
1.948796331677493388e-01
1.929690485288498292e-01
1.929690485288498292e-01
1.845624761176920259e-01
1.845624761176920259e-01
1.845624761176920259e-01
1.983186855177684338e-01
1.983186855177684338e-01
1.792128391287733935e-01
1.792128391287733935e-01
1.792128391287733935e-01
1.784486052732136008e-01
1.784486052732136008e-01
1.761559037065341948e-01
1.761559037065341948e-01
1.761559037065341948e-01
1.933511654566297255e-01
1.933511654566297255e-01
1.990829193733282265e-01
1.990829193733282265e-01
1.990829193733282265e-01
1.753916698509744021e-01
1.753916698509744021e-01
1.704241497898356938e-01
1.704241497898356938e-01
1.704241497898356938e-01
1.853267099732518186e-01
1.853267099732518186e-01
1.685135651509361843e-01
1.685135651509361843e-01
1.685135651509361843e-01
1.711883836453954866e-01
1.711883836453954866e-01
1.818876576232326958e-01
1.818876576232326958e-01
1.818876576232326958e-01
1.880015284677111209e-01
1.880015284677111209e-01
1.711883836453954866e-01
1.711883836453954866e-01
1.711883836453954866e-01
1.650745128009170892e-01
1.650745128009170892e-01
1.623996943064577869e-01
1.623996943064577869e-01
1.623996943064577869e-01
1.685135651509361843e-01
1.685135651509361843e-01
1.589606419564386641e-01
1.589606419564386641e-01
1.589606419564386641e-01
1.799770729843332140e-01
1.799770729843332140e-01
1.776843714176538080e-01
1.776843714176538080e-01
1.776843714176538080e-01
1.666029805120366747e-01
1.666029805120366747e-01
1.730989682842949962e-01
1.730989682842949962e-01
1.730989682842949962e-01
1.746274359954146094e-01
1.746274359954146094e-01
1.543752388230798522e-01
1.543752388230798522e-01
1.543752388230798522e-01
1.669850974398165711e-01
1.669850974398165711e-01
1.581964081008788714e-01
1.581964081008788714e-01
1.581964081008788714e-01
1.650745128009170892e-01
1.650745128009170892e-01
1.639281620175773724e-01
1.639281620175773724e-01
1.639281620175773724e-01
1.486434849063813513e-01
1.486434849063813513e-01
1.501719526175009645e-01
1.501719526175009645e-01
1.501719526175009645e-01
1.551394726786396727e-01
1.551394726786396727e-01
1.673672143675964952e-01
1.673672143675964952e-01
1.444401987008024357e-01
1.444401987008024357e-01
1.444401987008024357e-01
1.497898356897210681e-01
1.497898356897210681e-01
1.612533435231180701e-01
1.612533435231180701e-01
1.612533435231180701e-01
1.387084447841039347e-01
1.387084447841039347e-01
1.601069927397783810e-01
1.601069927397783810e-01
1.601069927397783810e-01
1.555215896064195691e-01
1.555215896064195691e-01
1.547573557508597764e-01
1.547573557508597764e-01
1.547573557508597764e-01
1.379442109285441420e-01
1.379442109285441420e-01
1.578142911730989750e-01
1.578142911730989750e-01
1.578142911730989750e-01
1.536110049675200595e-01
1.536110049675200595e-01
1.547573557508597764e-01
1.547573557508597764e-01
1.547573557508597764e-01
1.578142911730989750e-01
1.578142911730989750e-01
1.593427588842185605e-01
1.593427588842185605e-01
1.593427588842185605e-01
1.333588077951853301e-01
1.333588077951853301e-01
1.452044325563622562e-01
1.452044325563622562e-01
1.452044325563622562e-01
1.417653802063431334e-01
1.417653802063431334e-01
1.585785250286587678e-01
1.585785250286587678e-01
1.585785250286587678e-01
1.513183034008406536e-01
1.513183034008406536e-01
1.371799770729843215e-01
1.371799770729843215e-01
1.371799770729843215e-01
1.371799770729843215e-01
1.371799770729843215e-01
1.455865494841421526e-01
1.455865494841421526e-01
1.455865494841421526e-01
1.436759648452426430e-01
1.436759648452426430e-01
1.322124570118456133e-01
1.322124570118456133e-01
1.322124570118456133e-01
1.513183034008406536e-01
1.513183034008406536e-01
1.238058846006878100e-01
1.238058846006878100e-01
1.238058846006878100e-01
1.280091708062667255e-01
1.280091708062667255e-01
1.463507833397019453e-01
1.463507833397019453e-01
1.463507833397019453e-01
1.463507833397019453e-01
1.463507833397019453e-01
1.490256018341612476e-01
1.490256018341612476e-01
1.490256018341612476e-01
1.356515093618647361e-01
1.356515093618647361e-01
1.452044325563622562e-01
1.452044325563622562e-01
1.452044325563622562e-01
1.421474971341230298e-01
1.421474971341230298e-01
1.444401987008024357e-01
1.444401987008024357e-01
1.444401987008024357e-01
1.196025983951089083e-01
1.196025983951089083e-01
1.379442109285441420e-01
1.379442109285441420e-01
1.379442109285441420e-01
1.371799770729843215e-01
1.371799770729843215e-01
1.280091708062667255e-01
1.280091708062667255e-01
1.280091708062667255e-01
1.429117309896828503e-01
1.429117309896828503e-01
1.448223156285823598e-01
1.448223156285823598e-01
1.448223156285823598e-01
1.390905617118838311e-01
1.390905617118838311e-01
1.215131830340084040e-01
1.215131830340084040e-01
1.215131830340084040e-01
1.196025983951089083e-01
1.196025983951089083e-01
1.146350783339702001e-01
1.146350783339702001e-01
1.146350783339702001e-01
1.222774168895682106e-01
1.222774168895682106e-01
1.432938479174627466e-01
1.432938479174627466e-01
1.432938479174627466e-01
1.394726786396637275e-01
1.394726786396637275e-01
1.432938479174627466e-01
1.432938479174627466e-01
1.432938479174627466e-01
1.196025983951089083e-01
1.196025983951089083e-01
1.272449369507069050e-01
1.272449369507069050e-01
1.272449369507069050e-01
1.432938479174627466e-01
1.432938479174627466e-01
1.314482231562858205e-01
1.314482231562858205e-01
1.314482231562858205e-01
1.421474971341230298e-01
1.421474971341230298e-01
1.280091708062667255e-01
1.280091708062667255e-01
1.280091708062667255e-01
1.234237676729079136e-01
1.234237676729079136e-01
1.402369124952235480e-01
1.402369124952235480e-01
1.402369124952235480e-01
1.367978601452044252e-01
1.367978601452044252e-01
1.390905617118838311e-01
1.390905617118838311e-01
1.390905617118838311e-01
1.115781429117309875e-01
1.115781429117309875e-01
1.367978601452044252e-01
1.367978601452044252e-01
1.367978601452044252e-01
1.287734046618265182e-01
1.287734046618265182e-01
1.188383645395491017e-01
1.188383645395491017e-01
1.188383645395491017e-01
1.295376385173863110e-01
1.295376385173863110e-01
1.111960259839510912e-01
1.111960259839510912e-01
1.111960259839510912e-01
1.249522353840275130e-01
1.249522353840275130e-01
1.222774168895682106e-01
1.222774168895682106e-01
1.222774168895682106e-01
1.108139090561711948e-01
1.108139090561711948e-01
1.142529614061902898e-01
1.142529614061902898e-01
1.142529614061902898e-01
1.138708444784103935e-01
1.138708444784103935e-01
1.226595338173481070e-01
1.226595338173481070e-01
1.226595338173481070e-01
1.291555215896064146e-01
1.291555215896064146e-01
1.138708444784103935e-01
1.138708444784103935e-01
1.138708444784103935e-01
1.203668322506687011e-01
1.203668322506687011e-01
1.108139090561711948e-01
1.108139090561711948e-01
1.108139090561711948e-01
1.100496752006113882e-01
1.100496752006113882e-01
1.276270538784868291e-01
1.276270538784868291e-01
1.276270538784868291e-01
1.058463889950324865e-01
1.058463889950324865e-01
1.058463889950324865e-01
1.058463889950324865e-01
1.058463889950324865e-01
1.280091708062667255e-01
1.280091708062667255e-01
1.264807030951471123e-01
1.264807030951471123e-01
1.264807030951471123e-01
1.062285059228123829e-01
1.062285059228123829e-01
1.123423767672907941e-01
1.123423767672907941e-01
1.123423767672907941e-01
1.004967520061138680e-01
1.004967520061138680e-01
1.100496752006113882e-01
1.100496752006113882e-01
1.253343523118074232e-01
1.253343523118074232e-01
1.253343523118074232e-01
1.257164692395873196e-01
1.257164692395873196e-01
1.081390905617118786e-01
1.081390905617118786e-01
1.081390905617118786e-01
1.077569736339319822e-01
1.077569736339319822e-01
1.234237676729079136e-01
1.234237676729079136e-01
1.234237676729079136e-01
1.203668322506687011e-01
1.203668322506687011e-01
1.054642720672525763e-01
1.054642720672525763e-01
1.054642720672525763e-01
1.241880015284677063e-01
1.241880015284677063e-01
1.115781429117309875e-01
1.115781429117309875e-01
1.115781429117309875e-01
1.196025983951089083e-01
1.196025983951089083e-01
1.050821551394726799e-01
1.050821551394726799e-01
1.050821551394726799e-01
9.552923194497515980e-02
9.552923194497515980e-02
9.629346580053496640e-02
9.629346580053496640e-02
9.629346580053496640e-02
1.180741306839892951e-01
1.180741306839892951e-01
1.203668322506687011e-01
1.203668322506687011e-01
1.203668322506687011e-01
1.199847153228888047e-01
1.199847153228888047e-01
1.199847153228888047e-01
1.199847153228888047e-01
1.199847153228888047e-01
1.234237676729079136e-01
1.234237676729079136e-01
1.004967520061138680e-01
1.004967520061138680e-01
1.004967520061138680e-01
1.234237676729079136e-01
1.234237676729079136e-01
1.008788689338937783e-01
1.008788689338937783e-01
1.008788689338937783e-01
9.361864730607566409e-02
9.361864730607566409e-02
9.552923194497515980e-02
9.552923194497515980e-02
9.552923194497515980e-02
9.629346580053496640e-02
9.629346580053496640e-02
9.247229652273596112e-02
9.247229652273596112e-02
9.247229652273596112e-02
1.039358043561329770e-01
1.039358043561329770e-01
9.820405043943446211e-02
9.820405043943446211e-02
9.820405043943446211e-02
9.705769965609475913e-02
9.705769965609475913e-02
1.169277799006495921e-01
1.169277799006495921e-01
1.169277799006495921e-01
1.058463889950324865e-01
1.058463889950324865e-01
1.165456629728696958e-01
1.165456629728696958e-01
1.165456629728696958e-01
1.012609858616736747e-01
1.012609858616736747e-01
1.123423767672907941e-01
1.123423767672907941e-01
1.123423767672907941e-01
1.150171952617500964e-01
1.150171952617500964e-01
9.667558272831486277e-02
9.667558272831486277e-02
9.667558272831486277e-02
9.705769965609475913e-02
9.705769965609475913e-02
1.031715705005731704e-01
1.031715705005731704e-01
1.031715705005731704e-01
1.226595338173481070e-01
1.226595338173481070e-01
1.001146350783339717e-01
1.001146350783339717e-01
1.001146350783339717e-01
1.020252197172334674e-01
1.020252197172334674e-01
1.027894535727932740e-01
1.027894535727932740e-01
1.027894535727932740e-01
1.108139090561711948e-01
1.108139090561711948e-01
1.150171952617500964e-01
1.150171952617500964e-01
1.150171952617500964e-01
1.238058846006878100e-01
1.238058846006878100e-01
1.142529614061902898e-01
1.142529614061902898e-01
1.142529614061902898e-01
1.325945739396255374e-01
1.325945739396255374e-01
1.207489491784486113e-01
1.207489491784486113e-01
1.207489491784486113e-01
1.406190294230034443e-01
1.406190294230034443e-01
1.314482231562858205e-01
1.314482231562858205e-01
1.314482231562858205e-01
1.539931218952999559e-01
1.539931218952999559e-01
1.444401987008024357e-01
1.444401987008024357e-01
1.444401987008024357e-01
1.509361864730607572e-01
1.509361864730607572e-01
1.658387466564768820e-01
1.658387466564768820e-01
1.658387466564768820e-01
1.562858234619793618e-01
1.562858234619793618e-01
1.578142911730989750e-01
1.578142911730989750e-01
1.578142911730989750e-01
1.887657623232709136e-01
1.887657623232709136e-01
1.715705005731753829e-01
1.715705005731753829e-01
1.715705005731753829e-01
1.987008024455483302e-01
1.987008024455483302e-01
1.987008024455483302e-01
1.987008024455483302e-01
1.987008024455483302e-01
2.147497134123041718e-01
2.147497134123041718e-01
2.067252579289262648e-01
2.067252579289262648e-01
2.067252579289262648e-01
2.086358425678257467e-01
2.086358425678257467e-01
2.235384027512418714e-01
2.235384027512418714e-01
2.235384027512418714e-01
2.292701566679404002e-01
2.292701566679404002e-01
2.285059228123805797e-01
2.285059228123805797e-01
2.285059228123805797e-01
2.437905999235766008e-01
2.437905999235766008e-01
2.445548337791364213e-01
2.445548337791364213e-01
2.445548337791364213e-01
2.690103171570500384e-01
2.690103171570500384e-01
2.793274742071073513e-01
2.793274742071073513e-01
2.793274742071073513e-01
2.655712648070309712e-01
2.655712648070309712e-01
2.820022927015666814e-01
2.820022927015666814e-01
2.820022927015666814e-01
2.720672525792892649e-01
2.720672525792892649e-01
2.823844096293465777e-01
2.823844096293465777e-01
2.823844096293465777e-01
2.804738249904470959e-01
2.804738249904470959e-01
2.858234619793657005e-01
2.858234619793657005e-01
2.858234619793657005e-01
3.076041268628200154e-01
3.076041268628200154e-01
2.980512036683224952e-01
2.980512036683224952e-01
2.980512036683224952e-01
3.072220099350401190e-01
3.072220099350401190e-01
3.198318685517768656e-01
3.198318685517768656e-01
3.198318685517768656e-01
3.144822315628582610e-01
3.144822315628582610e-01
3.293847917462743857e-01
3.293847917462743857e-01
3.343523118074130940e-01
3.343523118074130940e-01
3.343523118074130940e-01
3.389377149407718504e-01
3.389377149407718504e-01
3.473442873519296814e-01
3.473442873519296814e-01
3.473442873519296814e-01
3.488727550630492669e-01
3.488727550630492669e-01
3.400840657241115950e-01
3.400840657241115950e-01
3.400840657241115950e-01
3.618647306075659098e-01
3.618647306075659098e-01
3.511654566297287006e-01
3.511654566297287006e-01
3.511654566297287006e-01
3.526939243408482860e-01
3.526939243408482860e-01
3.534581581964080788e-01
3.534581581964080788e-01
3.534581581964080788e-01
3.763851738632021382e-01
3.763851738632021382e-01
3.561329766908674088e-01
3.561329766908674088e-01
3.561329766908674088e-01
3.611004967520061171e-01
3.611004967520061171e-01
3.710355368742835336e-01
3.710355368742835336e-01
3.710355368742835336e-01
3.626289644631257025e-01
3.626289644631257025e-01
3.874665647688192438e-01
3.874665647688192438e-01
3.874665647688192438e-01
3.737103553687428081e-01
3.737103553687428081e-01
3.874665647688192438e-01
3.874665647688192438e-01
3.874665647688192438e-01
3.931983186855177448e-01
3.931983186855177448e-01
3.740924722965227600e-01
3.740924722965227600e-01
3.740924722965227600e-01
3.870844478410393474e-01
3.870844478410393474e-01
3.962552541077569712e-01
3.962552541077569712e-01
3.962552541077569712e-01
3.931983186855177448e-01
3.931983186855177448e-01
4.004585403133358867e-01
4.004585403133358867e-01
4.004585403133358867e-01
3.935804356132976967e-01
3.935804356132976967e-01
3.855559801299197620e-01
3.855559801299197620e-01
3.855559801299197620e-01
4.035154757355751132e-01
4.035154757355751132e-01
4.016048910966755758e-01
4.016048910966755758e-01
4.016048910966755758e-01
3.878486816965991402e-01
3.878486816965991402e-01
3.928162017577378484e-01
3.928162017577378484e-01
3.928162017577378484e-01
4.035154757355751132e-01
