1.734810852120748925e-01
1.696599159342759011e-01
1.696599159342759011e-01
1.696599159342759011e-01
1.761559037065341948e-01
1.761559037065341948e-01
1.719526175009552793e-01
1.719526175009552793e-01
1.719526175009552793e-01
1.746274359954146094e-01
1.746274359954146094e-01
1.593427588842185605e-01
1.593427588842185605e-01
1.593427588842185605e-01
1.593427588842185605e-01
1.593427588842185605e-01
1.688956820787160806e-01
1.688956820787160806e-01
1.688956820787160806e-01
1.750095529231945057e-01
1.750095529231945057e-01
1.608712265953381737e-01
1.608712265953381737e-01
1.520825372564004463e-01
1.520825372564004463e-01
1.520825372564004463e-01
1.539931218952999559e-01
1.539931218952999559e-01
1.715705005731753829e-01
1.715705005731753829e-01
1.715705005731753829e-01
1.566679403897592582e-01
1.566679403897592582e-01
1.666029805120366747e-01
1.666029805120366747e-01
1.666029805120366747e-01
1.658387466564768820e-01
1.658387466564768820e-01
1.581964081008788714e-01
1.581964081008788714e-01
1.581964081008788714e-01
1.700420328620557975e-01
1.700420328620557975e-01
1.539931218952999559e-01
1.539931218952999559e-01
1.539931218952999559e-01
1.547573557508597764e-01
1.547573557508597764e-01
1.627818112342376833e-01
1.627818112342376833e-01
1.627818112342376833e-01
1.654566297286969856e-01
1.654566297286969856e-01
1.574321742453190787e-01
1.574321742453190787e-01
1.574321742453190787e-01
1.509361864730607572e-01
1.509361864730607572e-01
1.696599159342759011e-01
1.696599159342759011e-01
1.696599159342759011e-01
1.505540695452808608e-01
1.505540695452808608e-01
1.578142911730989750e-01
1.578142911730989750e-01
1.578142911730989750e-01
1.482613679786014549e-01
1.482613679786014549e-01
1.715705005731753829e-01
1.715705005731753829e-01
1.715705005731753829e-01
1.673672143675964952e-01
1.673672143675964952e-01
1.666029805120366747e-01
1.666029805120366747e-01
1.666029805120366747e-01
1.490256018341612476e-01
1.490256018341612476e-01
1.692777990064959770e-01
1.692777990064959770e-01
1.692777990064959770e-01
1.738632021398547889e-01
1.738632021398547889e-01
1.708062667176155902e-01
1.708062667176155902e-01
1.708062667176155902e-01
1.501719526175009645e-01
1.501719526175009645e-01
1.730989682842949962e-01
1.730989682842949962e-01
1.730989682842949962e-01
1.704241497898356938e-01
1.704241497898356938e-01
1.593427588842185605e-01
1.593427588842185605e-01
1.593427588842185605e-01
1.700420328620557975e-01
1.700420328620557975e-01
1.666029805120366747e-01
1.666029805120366747e-01
1.666029805120366747e-01
1.494077187619411440e-01
1.494077187619411440e-01
1.662208635842567783e-01
1.662208635842567783e-01
1.662208635842567783e-01
1.528467711119602668e-01
1.528467711119602668e-01
1.501719526175009645e-01
1.501719526175009645e-01
1.501719526175009645e-01
1.585785250286587678e-01
1.585785250286587678e-01
1.482613679786014549e-01
1.482613679786014549e-01
1.482613679786014549e-01
1.574321742453190787e-01
1.574321742453190787e-01
1.696599159342759011e-01
1.696599159342759011e-01
1.696599159342759011e-01
1.562858234619793618e-01
1.562858234619793618e-01
1.623996943064577869e-01
1.623996943064577869e-01
1.623996943064577869e-01
1.471150171952617380e-01
1.471150171952617380e-01
1.543752388230798522e-01
1.543752388230798522e-01
1.543752388230798522e-01
1.669850974398165711e-01
1.669850974398165711e-01
1.604891096675582773e-01
1.604891096675582773e-01
1.604891096675582773e-01
1.658387466564768820e-01
1.658387466564768820e-01
1.463507833397019453e-01
1.463507833397019453e-01
1.463507833397019453e-01
1.677493312953763915e-01
1.677493312953763915e-01
1.452044325563622562e-01
1.452044325563622562e-01
1.452044325563622562e-01
1.532288880397401631e-01
1.532288880397401631e-01
1.459686664119220489e-01
1.459686664119220489e-01
1.459686664119220489e-01
1.593427588842185605e-01
1.593427588842185605e-01
1.501719526175009645e-01
1.501719526175009645e-01
1.501719526175009645e-01
1.517004203286205499e-01
1.517004203286205499e-01
1.601069927397783810e-01
1.601069927397783810e-01
1.601069927397783810e-01
1.593427588842185605e-01
1.593427588842185605e-01
1.666029805120366747e-01
1.666029805120366747e-01
1.666029805120366747e-01
1.708062667176155902e-01
1.708062667176155902e-01
1.490256018341612476e-01
1.490256018341612476e-01
1.490256018341612476e-01
1.524646541841803704e-01
1.524646541841803704e-01
1.539931218952999559e-01
1.539931218952999559e-01
1.539931218952999559e-01
1.459686664119220489e-01
1.459686664119220489e-01
1.562858234619793618e-01
1.562858234619793618e-01
1.562858234619793618e-01
1.620175773786778628e-01
1.620175773786778628e-01
1.494077187619411440e-01
1.494077187619411440e-01
1.494077187619411440e-01
1.436759648452426430e-01
1.436759648452426430e-01
1.616354604508979664e-01
1.616354604508979664e-01
1.616354604508979664e-01
1.501719526175009645e-01
1.501719526175009645e-01
1.581964081008788714e-01
1.581964081008788714e-01
1.581964081008788714e-01
1.459686664119220489e-01
1.459686664119220489e-01
1.539931218952999559e-01
1.539931218952999559e-01
1.539931218952999559e-01
1.509361864730607572e-01
1.509361864730607572e-01
1.612533435231180701e-01
1.612533435231180701e-01
1.612533435231180701e-01
1.444401987008024357e-01
1.444401987008024357e-01
1.555215896064195691e-01
1.555215896064195691e-01
1.555215896064195691e-01
1.387084447841039347e-01
1.387084447841039347e-01
1.646923958731371929e-01
1.646923958731371929e-01
1.646923958731371929e-01
1.455865494841421526e-01
1.455865494841421526e-01
1.623996943064577869e-01
1.623996943064577869e-01
1.623996943064577869e-01
1.425296140619029539e-01
1.425296140619029539e-01
1.566679403897592582e-01
1.566679403897592582e-01
1.432938479174627466e-01
1.432938479174627466e-01
1.432938479174627466e-01
1.578142911730989750e-01
1.578142911730989750e-01
1.432938479174627466e-01
1.432938479174627466e-01
1.432938479174627466e-01
1.432938479174627466e-01
1.432938479174627466e-01
1.494077187619411440e-01
1.494077187619411440e-01
1.494077187619411440e-01
1.436759648452426430e-01
1.436759648452426430e-01
1.474971341230416622e-01
1.474971341230416622e-01
1.474971341230416622e-01
1.551394726786396727e-01
1.551394726786396727e-01
1.471150171952617380e-01
1.471150171952617380e-01
1.471150171952617380e-01
1.520825372564004463e-01
1.520825372564004463e-01
1.406190294230034443e-01
1.406190294230034443e-01
1.406190294230034443e-01
1.448223156285823598e-01
1.448223156285823598e-01
1.390905617118838311e-01
1.390905617118838311e-01
1.390905617118838311e-01
1.520825372564004463e-01
1.520825372564004463e-01
1.410011463507833407e-01
1.410011463507833407e-01
1.410011463507833407e-01
1.459686664119220489e-01
1.459686664119220489e-01
1.574321742453190787e-01
1.574321742453190787e-01
1.574321742453190787e-01
1.559037065341994654e-01
1.559037065341994654e-01
1.559037065341994654e-01
1.559037065341994654e-01
1.559037065341994654e-01
1.574321742453190787e-01
1.574321742453190787e-01
1.559037065341994654e-01
1.559037065341994654e-01
1.559037065341994654e-01
1.410011463507833407e-01
1.410011463507833407e-01
1.681314482231562879e-01
1.681314482231562879e-01
1.681314482231562879e-01
1.478792510508215585e-01
1.478792510508215585e-01
1.673672143675964952e-01
1.673672143675964952e-01
1.673672143675964952e-01
1.708062667176155902e-01
1.708062667176155902e-01
1.578142911730989750e-01
1.578142911730989750e-01
1.578142911730989750e-01
1.677493312953763915e-01
1.677493312953763915e-01
1.646923958731371929e-01
1.646923958731371929e-01
1.646923958731371929e-01
1.811234237676729031e-01
1.811234237676729031e-01
1.834161253343523090e-01
1.834161253343523090e-01
1.834161253343523090e-01
1.868551776843714041e-01
1.868551776843714041e-01
1.876194115399312246e-01
1.876194115399312246e-01
1.876194115399312246e-01
2.132212457011845586e-01
2.132212457011845586e-01
2.094000764233855671e-01
2.094000764233855671e-01
2.094000764233855671e-01
2.116927779900649731e-01
2.116927779900649731e-01
2.346197936568590048e-01
2.346197936568590048e-01
2.346197936568590048e-01
2.254489873901413810e-01
2.254489873901413810e-01
2.506687046236148464e-01
2.506687046236148464e-01
2.506687046236148464e-01
2.510508215513947428e-01
2.510508215513947428e-01
2.636606801681314338e-01
2.636606801681314338e-01
2.636606801681314338e-01
2.667176155903706603e-01
2.667176155903706603e-01
2.789453572793274549e-01
2.789453572793274549e-01
2.789453572793274549e-01
2.881161635460450787e-01
2.881161635460450787e-01
3.110431792128391382e-01
3.110431792128391382e-01
3.110431792128391382e-01
3.202139854795567619e-01
3.202139854795567619e-01
3.079862437905999117e-01
3.079862437905999117e-01
3.079862437905999117e-01
3.354986625907527831e-01
3.354986625907527831e-01
3.393198318685518022e-01
3.393198318685518022e-01
3.393198318685518022e-01
3.557508597630875125e-01
3.557508597630875125e-01
3.469621704241497850e-01
3.469621704241497850e-01
3.469621704241497850e-01
3.622468475353458062e-01
3.622468475353458062e-01
3.748567061520825527e-01
3.748567061520825527e-01
3.748567061520825527e-01
3.668322506687046181e-01
3.668322506687046181e-01
3.794421092854413646e-01
3.794421092854413646e-01
3.794421092854413646e-01
3.855559801299197620e-01
3.855559801299197620e-01
3.828811616354604319e-01
3.828811616354604319e-01
3.828811616354604319e-01
4.058081773022544914e-01
4.058081773022544914e-01
3.878486816965991402e-01
3.878486816965991402e-01
3.878486816965991402e-01
4.065724111578142841e-01
4.065724111578142841e-01
4.145968666411922188e-01
4.145968666411922188e-01
4.145968666411922188e-01
4.126862820022926814e-01
4.126862820022926814e-01
4.046618265189148023e-01
4.046618265189148023e-01
4.046618265189148023e-01
4.084829957967138214e-01
4.084829957967138214e-01
4.145968666411922188e-01
4.145968666411922188e-01
4.145968666411922188e-01
4.226213221245700979e-01
4.226213221245700979e-01
4.210928544134505125e-01
4.210928544134505125e-01
4.210928544134505125e-01
4.172716851356514933e-01
4.172716851356514933e-01
4.321742453190676181e-01
4.321742453190676181e-01
4.321742453190676181e-01
4.268246083301490135e-01
4.268246083301490135e-01
4.314100114635078254e-01
4.314100114635078254e-01
4.314100114635078254e-01
4.195643867023309270e-01
4.195643867023309270e-01
4.199465036301108234e-01
4.199465036301108234e-01
4.199465036301108234e-01
4.149789835689721151e-01
4.149789835689721151e-01
4.325563622468475145e-01
4.325563622468475145e-01
4.325563622468475145e-01
4.153611004967520115e-01
4.153611004967520115e-01
4.329384791746274108e-01
4.329384791746274108e-01
4.329384791746274108e-01
4.252961406190294280e-01
4.252961406190294280e-01
4.260603744745892207e-01
4.260603744745892207e-01
4.260603744745892207e-01
4.145968666411922188e-01
4.145968666411922188e-01
4.233855559801299462e-01
4.233855559801299462e-01
4.233855559801299462e-01
4.088651127244937178e-01
4.088651127244937178e-01
4.272067252579289098e-01
4.272067252579289098e-01
4.245319067634696353e-01
4.245319067634696353e-01
4.245319067634696353e-01
4.115399312189529923e-01
4.115399312189529923e-01
3.989300726022163013e-01
3.989300726022163013e-01
3.989300726022163013e-01
3.958731371799770749e-01
3.958731371799770749e-01
3.993121895299961976e-01
3.993121895299961976e-01
3.993121895299961976e-01
4.088651127244937178e-01
4.088651127244937178e-01
4.123041650745127851e-01
4.123041650745127851e-01
4.123041650745127851e-01
3.974016048910966603e-01
3.974016048910966603e-01
3.958731371799770749e-01
3.958731371799770749e-01
3.958731371799770749e-01
3.977837218188765567e-01
3.977837218188765567e-01
4.035154757355751132e-01
4.035154757355751132e-01
4.035154757355751132e-01
3.859380970576996583e-01
3.859380970576996583e-01
3.855559801299197620e-01
3.855559801299197620e-01
3.855559801299197620e-01
3.836453954910202246e-01
3.836453954910202246e-01
3.928162017577378484e-01
3.928162017577378484e-01
3.928162017577378484e-01
3.855559801299197620e-01
3.855559801299197620e-01
3.729461215131830154e-01
3.729461215131830154e-01
3.729461215131830154e-01
3.809705769965609501e-01
3.809705769965609501e-01
3.844096293465800729e-01
3.844096293465800729e-01
3.844096293465800729e-01
3.779136415743217237e-01
3.779136415743217237e-01
3.691249522353840518e-01
3.691249522353840518e-01
3.691249522353840518e-01
3.790599923576614683e-01
3.790599923576614683e-01
3.672143675964845144e-01
3.672143675964845144e-01
3.672143675964845144e-01
3.737103553687428081e-01
3.737103553687428081e-01
3.779136415743217237e-01
3.779136415743217237e-01
3.779136415743217237e-01
3.549866259075277197e-01
3.549866259075277197e-01
3.591899121131066352e-01
3.591899121131066352e-01
3.591899121131066352e-01
3.580435613297668906e-01
3.580435613297668906e-01
3.614826136797860134e-01
3.614826136797860134e-01
3.614826136797860134e-01
3.504012227741689078e-01
3.504012227741689078e-01
3.534581581964080788e-01
3.534581581964080788e-01
3.534581581964080788e-01
3.580435613297668906e-01
3.580435613297668906e-01
3.614826136797860134e-01
3.614826136797860134e-01
3.614826136797860134e-01
3.534581581964080788e-01
3.534581581964080788e-01
3.576614444019869943e-01
3.576614444019869943e-01
3.576614444019869943e-01
3.488727550630492669e-01
3.488727550630492669e-01
3.511654566297287006e-01
3.511654566297287006e-01
3.511654566297287006e-01
3.519296904852884933e-01
3.519296904852884933e-01
3.259457393962552629e-01
3.259457393962552629e-01
3.259457393962552629e-01
3.377913641574321613e-01
3.377913641574321613e-01
3.290026748184944339e-01
3.290026748184944339e-01
3.290026748184944339e-01
3.198318685517768656e-01
3.198318685517768656e-01
3.179212839128773282e-01
3.179212839128773282e-01
3.179212839128773282e-01
3.263278563240351593e-01
3.263278563240351593e-01
3.377913641574321613e-01
3.377913641574321613e-01
3.377913641574321613e-01
3.236530378295758292e-01
3.236530378295758292e-01
3.152464654184180537e-01
3.152464654184180537e-01
3.152464654184180537e-01
3.198318685517768656e-01
3.198318685517768656e-01
3.163928162017577428e-01
3.163928162017577428e-01
3.163928162017577428e-01
3.156285823461979501e-01
3.156285823461979501e-01
3.148643484906381573e-01
3.148643484906381573e-01
3.148643484906381573e-01
3.091325945739396008e-01
3.091325945739396008e-01
3.056935422239205336e-01
3.056935422239205336e-01
3.056935422239205336e-01
2.934658005349636833e-01
2.934658005349636833e-01
3.095147115017195527e-01
3.095147115017195527e-01
3.095147115017195527e-01
2.907909820405044088e-01
2.907909820405044088e-01
2.984333205961023916e-01
2.984333205961023916e-01
2.984333205961023916e-01
2.881161635460450787e-01
2.881161635460450787e-01
2.839128773404661632e-01
2.839128773404661632e-01
2.839128773404661632e-01
2.862055789071455969e-01
2.862055789071455969e-01
2.904088651127245124e-01
2.904088651127245124e-01
2.904088651127245124e-01
2.846771111960260114e-01
2.846771111960260114e-01
2.724493695070691612e-01
2.724493695070691612e-01
2.724493695070691612e-01
2.762705387848681804e-01
2.762705387848681804e-01
2.720672525792892649e-01
2.720672525792892649e-01
2.720672525792892649e-01
2.930836836071837870e-01
2.930836836071837870e-01
2.732136033626289540e-01
2.732136033626289540e-01
2.732136033626289540e-01
2.693924340848299348e-01
2.693924340848299348e-01
2.785632403515475586e-01
2.785632403515475586e-01
2.785632403515475586e-01
2.927015666794038906e-01
2.927015666794038906e-01
2.839128773404661632e-01
2.839128773404661632e-01
2.839128773404661632e-01
2.701566679403897830e-01
2.701566679403897830e-01
2.751241880015284913e-01
2.751241880015284913e-01
2.751241880015284913e-01
2.781811234237676622e-01
2.781811234237676622e-01
2.674818494459304530e-01
2.674818494459304530e-01
2.674818494459304530e-01
2.762705387848681804e-01
2.762705387848681804e-01
2.739778372181887467e-01
2.739778372181887467e-01
2.739778372181887467e-01
2.777990064959877659e-01
2.777990064959877659e-01
2.835307604126862668e-01
2.835307604126862668e-01
2.835307604126862668e-01
2.797095911348873032e-01
2.797095911348873032e-01
2.655712648070309712e-01
2.655712648070309712e-01
2.808559419182269923e-01
2.808559419182269923e-01
2.808559419182269923e-01
2.800917080626671996e-01
2.800917080626671996e-01
2.621322124570118484e-01
2.621322124570118484e-01
2.621322124570118484e-01
2.670997325181505566e-01
2.670997325181505566e-01
2.690103171570500384e-01
2.690103171570500384e-01
2.690103171570500384e-01
2.609858616736721593e-01
2.609858616736721593e-01
2.602216278181123665e-01
2.602216278181123665e-01
2.602216278181123665e-01
2.705387848681696794e-01
2.705387848681696794e-01
2.690103171570500384e-01
2.690103171570500384e-01
2.690103171570500384e-01
2.774168895682078695e-01
2.774168895682078695e-01
2.747420710737485394e-01
2.747420710737485394e-01
2.747420710737485394e-01
2.648070309514711229e-01
2.648070309514711229e-01
2.751241880015284913e-01
2.751241880015284913e-01
2.751241880015284913e-01
2.743599541459686431e-01
2.743599541459686431e-01
2.682460833014902457e-01
2.682460833014902457e-01
2.682460833014902457e-01
2.560183416125334510e-01
2.560183416125334510e-01
2.590752770347726219e-01
2.590752770347726219e-01
2.590752770347726219e-01
2.548719908291937064e-01
2.548719908291937064e-01
2.621322124570118484e-01
2.621322124570118484e-01
2.621322124570118484e-01
2.625143293847917447e-01
2.625143293847917447e-01
2.541077569736339137e-01
2.541077569736339137e-01
2.541077569736339137e-01
2.472296522735957236e-01
2.472296522735957236e-01
2.579289262514329328e-01
2.579289262514329328e-01
2.579289262514329328e-01
2.521971723347344319e-01
2.521971723347344319e-01
2.609858616736721593e-01
2.609858616736721593e-01
2.609858616736721593e-01
2.590752770347726219e-01
2.590752770347726219e-01
2.457011845624761104e-01
2.457011845624761104e-01
2.457011845624761104e-01
2.437905999235766008e-01
2.437905999235766008e-01
2.651891478792510748e-01
2.651891478792510748e-01
2.651891478792510748e-01
2.437905999235766008e-01
2.437905999235766008e-01
2.472296522735957236e-01
2.472296522735957236e-01
2.472296522735957236e-01
2.537256400458540173e-01
2.537256400458540173e-01
2.564004585403133474e-01
2.564004585403133474e-01
2.564004585403133474e-01
2.506687046236148464e-01
2.506687046236148464e-01
2.338555598012991843e-01
2.338555598012991843e-01
2.338555598012991843e-01
2.476117692013756200e-01
2.476117692013756200e-01
2.369124952235384107e-01
2.369124952235384107e-01
2.369124952235384107e-01
2.437905999235766008e-01
2.437905999235766008e-01
2.537256400458540173e-01
2.537256400458540173e-01
2.537256400458540173e-01
2.502865876958349500e-01
2.502865876958349500e-01
2.388230798624378926e-01
2.388230798624378926e-01
2.388230798624378926e-01
2.468475353458158272e-01
2.468475353458158272e-01
2.476117692013756200e-01
2.476117692013756200e-01
2.476117692013756200e-01
2.307986243790599856e-01
2.307986243790599856e-01
2.254489873901413810e-01
2.254489873901413810e-01
2.254489873901413810e-01
2.426442491402369117e-01
2.426442491402369117e-01
2.422621322124570153e-01
2.422621322124570153e-01
2.422621322124570153e-01
2.330913259457393916e-01
2.330913259457393916e-01
2.346197936568590048e-01
2.346197936568590048e-01
2.346197936568590048e-01
2.158960641956438609e-01
2.158960641956438609e-01
2.281238058846006833e-01
2.281238058846006833e-01
2.281238058846006833e-01
2.231562858234619751e-01
2.231562858234619751e-01
2.200993504012227764e-01
2.200993504012227764e-01
2.200993504012227764e-01
2.147497134123041718e-01
2.147497134123041718e-01
2.300343905235001929e-01
2.300343905235001929e-01
2.300343905235001929e-01
2.113106610622850490e-01
2.113106610622850490e-01
2.055789071455865480e-01
2.055789071455865480e-01
2.055789071455865480e-01
2.296522735957202965e-01
2.296522735957202965e-01
2.258311043179212774e-01
2.258311043179212774e-01
2.258311043179212774e-01
2.197172334734428800e-01
2.197172334734428800e-01
2.285059228123805797e-01
2.285059228123805797e-01
2.285059228123805797e-01
2.128391287734046622e-01
2.128391287734046622e-01
2.063431410011463407e-01
2.063431410011463407e-01
2.063431410011463407e-01
2.025219717233473493e-01
2.025219717233473493e-01
1.994650363011081506e-01
1.994650363011081506e-01
1.994650363011081506e-01
1.998471532288880470e-01
1.998471532288880470e-01
2.189529996178830595e-01
2.189529996178830595e-01
2.189529996178830595e-01
2.090179594956056430e-01
2.090179594956056430e-01
2.124570118456247658e-01
2.124570118456247658e-01
2.124570118456247658e-01
1.933511654566297255e-01
1.933511654566297255e-01
2.124570118456247658e-01
2.124570118456247658e-01
2.124570118456247658e-01
2.105464272067252562e-01
2.105464272067252562e-01
1.998471532288880470e-01
1.998471532288880470e-01
1.998471532288880470e-01
2.006113870844478397e-01
2.006113870844478397e-01
2.021398547955674529e-01
2.021398547955674529e-01
2.021398547955674529e-01
2.109285441345051526e-01
2.109285441345051526e-01
2.101643102789453599e-01
2.101643102789453599e-01
2.101643102789453599e-01
1.922048146732900364e-01
1.922048146732900364e-01
1.887657623232709136e-01
1.887657623232709136e-01
1.887657623232709136e-01
1.880015284677111209e-01
1.880015284677111209e-01
2.017577378677875566e-01
2.017577378677875566e-01
1.990829193733282265e-01
1.990829193733282265e-01
1.990829193733282265e-01
1.887657623232709136e-01
1.887657623232709136e-01
1.876194115399312246e-01
1.876194115399312246e-01
1.876194115399312246e-01
1.918226977455101123e-01
1.918226977455101123e-01
2.025219717233473493e-01
2.025219717233473493e-01
2.025219717233473493e-01
1.964081008788689242e-01
1.964081008788689242e-01
1.834161253343523090e-01
1.834161253343523090e-01
1.834161253343523090e-01
1.975544516622086411e-01
1.975544516622086411e-01
1.937332823844096219e-01
1.937332823844096219e-01
1.937332823844096219e-01
1.792128391287733935e-01
1.792128391287733935e-01
2.002292701566679434e-01
2.002292701566679434e-01
2.002292701566679434e-01
1.857088269010317150e-01
1.857088269010317150e-01
1.822697745510126199e-01
1.822697745510126199e-01
1.822697745510126199e-01
1.761559037065341948e-01
1.761559037065341948e-01
1.899121131066106305e-01
1.899121131066106305e-01
1.899121131066106305e-01
2.017577378677875566e-01
2.017577378677875566e-01
1.818876576232326958e-01
1.818876576232326958e-01
1.818876576232326958e-01
1.891478792510508100e-01
1.891478792510508100e-01
1.891478792510508100e-01
1.891478792510508100e-01
1.891478792510508100e-01
1.753916698509744021e-01
1.753916698509744021e-01
1.776843714176538080e-01
1.776843714176538080e-01
1.776843714176538080e-01
1.849445930454719222e-01
1.849445930454719222e-01
1.746274359954146094e-01
1.746274359954146094e-01
1.746274359954146094e-01
1.811234237676729031e-01
1.811234237676729031e-01
1.845624761176920259e-01
1.845624761176920259e-01
1.845624761176920259e-01
1.887657623232709136e-01
1.887657623232709136e-01
1.941153993121895183e-01
1.941153993121895183e-01
1.941153993121895183e-01
1.700420328620557975e-01
1.700420328620557975e-01
1.826518914787925163e-01
1.826518914787925163e-01
1.826518914787925163e-01
1.711883836453954866e-01
1.711883836453954866e-01
1.822697745510126199e-01
1.822697745510126199e-01
1.822697745510126199e-01
1.857088269010317150e-01
1.857088269010317150e-01
1.880015284677111209e-01
1.880015284677111209e-01
1.880015284677111209e-01
1.746274359954146094e-01
1.746274359954146094e-01
1.711883836453954866e-01
1.711883836453954866e-01
1.711883836453954866e-01
1.883836453954910173e-01
1.883836453954910173e-01
1.658387466564768820e-01
1.658387466564768820e-01
1.658387466564768820e-01
1.807413068398930067e-01
1.807413068398930067e-01
1.635460450897974760e-01
1.635460450897974760e-01
1.635460450897974760e-01
1.658387466564768820e-01
1.658387466564768820e-01
1.822697745510126199e-01
1.822697745510126199e-01
1.822697745510126199e-01
1.673672143675964952e-01
1.673672143675964952e-01
1.730989682842949962e-01
1.730989682842949962e-01
1.730989682842949962e-01
1.822697745510126199e-01
1.822697745510126199e-01
1.750095529231945057e-01
1.750095529231945057e-01
1.750095529231945057e-01
1.818876576232326958e-01
1.818876576232326958e-01
1.711883836453954866e-01
1.711883836453954866e-01
1.711883836453954866e-01
1.727168513565150998e-01
1.727168513565150998e-01
1.719526175009552793e-01
1.719526175009552793e-01
1.719526175009552793e-01
1.688956820787160806e-01
1.688956820787160806e-01
1.715705005731753829e-01
1.715705005731753829e-01
1.715705005731753829e-01
1.757737867787542985e-01
1.757737867787542985e-01
1.815055406954527994e-01
1.815055406954527994e-01
1.815055406954527994e-01
1.734810852120748925e-01
1.734810852120748925e-01
1.815055406954527994e-01
1.815055406954527994e-01
1.815055406954527994e-01
1.792128391287733935e-01
1.792128391287733935e-01
1.788307222009934971e-01
1.788307222009934971e-01
1.788307222009934971e-01
1.631639281620175796e-01
1.631639281620175796e-01
1.677493312953763915e-01
1.677493312953763915e-01
1.677493312953763915e-01
1.719526175009552793e-01
1.719526175009552793e-01
1.746274359954146094e-01
1.746274359954146094e-01
1.746274359954146094e-01
1.776843714176538080e-01
1.776843714176538080e-01
1.784486052732136008e-01
1.784486052732136008e-01
1.784486052732136008e-01
1.593427588842185605e-01
1.593427588842185605e-01
1.570500573175391545e-01
1.570500573175391545e-01
1.570500573175391545e-01
1.711883836453954866e-01
1.711883836453954866e-01
1.723347344287352034e-01
1.723347344287352034e-01
1.723347344287352034e-01
1.662208635842567783e-01
1.662208635842567783e-01
1.604891096675582773e-01
1.604891096675582773e-01
1.604891096675582773e-01
1.597248758119984846e-01
1.597248758119984846e-01
1.604891096675582773e-01
1.604891096675582773e-01
1.604891096675582773e-01
1.551394726786396727e-01
1.551394726786396727e-01
1.627818112342376833e-01
1.627818112342376833e-01
1.627818112342376833e-01
1.780664883454337044e-01
1.780664883454337044e-01
1.559037065341994654e-01
1.559037065341994654e-01
1.559037065341994654e-01
1.750095529231945057e-01
1.750095529231945057e-01
1.730989682842949962e-01
1.730989682842949962e-01
1.730989682842949962e-01
1.746274359954146094e-01
1.746274359954146094e-01
1.524646541841803704e-01
1.524646541841803704e-01
1.524646541841803704e-01
1.551394726786396727e-01
1.551394726786396727e-01
1.547573557508597764e-01
1.547573557508597764e-01
1.547573557508597764e-01
1.566679403897592582e-01
1.566679403897592582e-01
1.654566297286969856e-01
1.654566297286969856e-01
1.692777990064959770e-01
1.692777990064959770e-01
1.692777990064959770e-01
1.643102789453572687e-01
1.643102789453572687e-01
1.559037065341994654e-01
1.559037065341994654e-01
1.559037065341994654e-01
1.532288880397401631e-01
1.532288880397401631e-01
1.593427588842185605e-01
1.593427588842185605e-01
1.593427588842185605e-01
1.536110049675200595e-01
1.536110049675200595e-01
1.589606419564386641e-01
1.589606419564386641e-01
1.589606419564386641e-01
1.757737867787542985e-01
1.757737867787542985e-01
1.547573557508597764e-01
1.547573557508597764e-01
1.547573557508597764e-01
1.532288880397401631e-01
1.532288880397401631e-01
1.559037065341994654e-01
1.559037065341994654e-01
1.559037065341994654e-01
1.646923958731371929e-01
1.646923958731371929e-01
1.730989682842949962e-01
1.730989682842949962e-01
1.730989682842949962e-01
1.715705005731753829e-01
1.715705005731753829e-01
1.677493312953763915e-01
1.677493312953763915e-01
1.677493312953763915e-01
1.719526175009552793e-01
1.719526175009552793e-01
1.627818112342376833e-01
1.627818112342376833e-01
1.627818112342376833e-01
1.723347344287352034e-01
1.723347344287352034e-01
1.601069927397783810e-01
1.601069927397783810e-01
1.601069927397783810e-01
1.765380206343140912e-01
1.765380206343140912e-01
1.578142911730989750e-01
1.578142911730989750e-01
1.578142911730989750e-01
1.696599159342759011e-01
1.696599159342759011e-01
1.494077187619411440e-01
1.494077187619411440e-01
1.494077187619411440e-01
1.635460450897974760e-01
1.635460450897974760e-01
1.711883836453954866e-01
1.711883836453954866e-01
1.711883836453954866e-01
1.669850974398165711e-01
1.669850974398165711e-01
1.471150171952617380e-01
1.471150171952617380e-01
1.471150171952617380e-01
1.639281620175773724e-01
1.639281620175773724e-01
1.578142911730989750e-01
1.578142911730989750e-01
1.578142911730989750e-01
1.708062667176155902e-01
1.708062667176155902e-01
1.730989682842949962e-01
1.730989682842949962e-01
1.730989682842949962e-01
1.581964081008788714e-01
1.581964081008788714e-01
1.593427588842185605e-01
1.593427588842185605e-01
1.593427588842185605e-01
1.539931218952999559e-01
1.539931218952999559e-01
1.685135651509361843e-01
1.685135651509361843e-01
1.685135651509361843e-01
1.666029805120366747e-01
1.666029805120366747e-01
1.620175773786778628e-01
1.620175773786778628e-01
1.620175773786778628e-01
1.543752388230798522e-01
1.543752388230798522e-01
1.669850974398165711e-01
1.669850974398165711e-01
1.669850974398165711e-01
1.501719526175009645e-01
1.501719526175009645e-01
1.578142911730989750e-01
1.578142911730989750e-01
1.578142911730989750e-01
1.696599159342759011e-01
1.696599159342759011e-01
1.501719526175009645e-01
1.501719526175009645e-01
1.501719526175009645e-01
1.704241497898356938e-01
1.704241497898356938e-01
1.509361864730607572e-01
1.509361864730607572e-01
1.509361864730607572e-01
1.635460450897974760e-01
1.635460450897974760e-01
1.497898356897210681e-01
1.497898356897210681e-01
1.497898356897210681e-01
1.471150171952617380e-01
1.471150171952617380e-01
1.620175773786778628e-01
1.620175773786778628e-01
1.620175773786778628e-01
1.669850974398165711e-01
1.669850974398165711e-01
1.646923958731371929e-01
1.646923958731371929e-01
1.646923958731371929e-01
1.654566297286969856e-01
1.654566297286969856e-01
1.620175773786778628e-01
1.620175773786778628e-01
1.620175773786778628e-01
1.528467711119602668e-01
1.528467711119602668e-01
1.478792510508215585e-01
1.478792510508215585e-01
1.478792510508215585e-01
1.662208635842567783e-01
1.662208635842567783e-01
1.551394726786396727e-01
1.551394726786396727e-01
1.551394726786396727e-01
1.448223156285823598e-01
1.448223156285823598e-01
1.490256018341612476e-01
1.490256018341612476e-01
1.490256018341612476e-01
1.436759648452426430e-01
1.436759648452426430e-01
1.471150171952617380e-01
1.471150171952617380e-01
1.471150171952617380e-01
1.589606419564386641e-01
1.589606419564386641e-01
1.432938479174627466e-01
1.432938479174627466e-01
1.432938479174627466e-01
1.635460450897974760e-01
1.635460450897974760e-01
1.620175773786778628e-01
1.620175773786778628e-01
1.620175773786778628e-01
1.459686664119220489e-01
1.459686664119220489e-01
1.601069927397783810e-01
1.601069927397783810e-01
1.601069927397783810e-01
1.555215896064195691e-01
1.555215896064195691e-01
1.398547955674436516e-01
1.398547955674436516e-01
1.398547955674436516e-01
1.666029805120366747e-01
1.666029805120366747e-01
1.543752388230798522e-01
1.543752388230798522e-01
1.543752388230798522e-01
1.497898356897210681e-01
1.497898356897210681e-01
1.555215896064195691e-01
1.555215896064195691e-01
1.555215896064195691e-01
1.669850974398165711e-01
1.669850974398165711e-01
1.578142911730989750e-01
1.578142911730989750e-01
1.578142911730989750e-01
1.627818112342376833e-01
1.627818112342376833e-01
1.868551776843714041e-01
1.868551776843714041e-01
1.868551776843714041e-01
1.837982422621322054e-01
1.837982422621322054e-01
1.857088269010317150e-01
1.857088269010317150e-01
1.857088269010317150e-01
1.922048146732900364e-01
1.922048146732900364e-01
1.925869316010699328e-01
1.925869316010699328e-01
1.998471532288880470e-01
1.998471532288880470e-01
1.998471532288880470e-01
2.078716087122659539e-01
2.078716087122659539e-01
2.277416889568207869e-01
2.277416889568207869e-01
2.277416889568207869e-01
2.445548337791364213e-01
2.445548337791364213e-01
2.296522735957202965e-01
2.296522735957202965e-01
2.296522735957202965e-01
2.583110431792128292e-01
2.583110431792128292e-01
2.487581199847153091e-01
2.487581199847153091e-01
2.487581199847153091e-01
2.678639663737103493e-01
2.678639663737103493e-01
2.747420710737485394e-01
2.747420710737485394e-01
2.747420710737485394e-01
2.747420710737485394e-01
2.747420710737485394e-01
2.816201757737867850e-01
2.816201757737867850e-01
2.816201757737867850e-01
3.156285823461979501e-01
3.156285823461979501e-01
3.083683607183798081e-01
3.083683607183798081e-01
3.083683607183798081e-01
3.228888039740160365e-01
3.228888039740160365e-01
3.167749331295376392e-01
3.167749331295376392e-01
3.167749331295376392e-01
3.347344287351929903e-01
3.347344287351929903e-01
3.523118074130683897e-01
3.523118074130683897e-01
3.523118074130683897e-01
3.675964845242644108e-01
3.675964845242644108e-01
3.553687428353076161e-01
3.553687428353076161e-01
3.553687428353076161e-01
3.649216660298051362e-01
3.649216660298051362e-01
3.733282384409629118e-01
3.733282384409629118e-01
3.733282384409629118e-01
3.748567061520825527e-01
3.748567061520825527e-01
3.851738632021398656e-01
3.851738632021398656e-01
3.851738632021398656e-01
3.928162017577378484e-01
3.928162017577378484e-01
3.893771494077187811e-01
3.893771494077187811e-01
3.893771494077187811e-01
4.100114635078334069e-01
4.100114635078334069e-01
4.023691249522353686e-01
4.023691249522353686e-01
4.023691249522353686e-01
4.088651127244937178e-01
4.088651127244937178e-01
4.249140236912495316e-01
4.249140236912495316e-01
4.249140236912495316e-01
4.084829957967138214e-01
4.084829957967138214e-01
4.264424914023691171e-01
4.264424914023691171e-01
4.264424914023691171e-01
4.130683989300725778e-01
4.130683989300725778e-01
4.218570882690103052e-01
4.218570882690103052e-01
4.218570882690103052e-01
4.203286205578907198e-01
4.203286205578907198e-01
4.401987008024455528e-01
4.401987008024455528e-01
4.401987008024455528e-01
4.260603744745892207e-01
4.260603744745892207e-01
4.398165838746656564e-01
4.398165838746656564e-01
4.398165838746656564e-01
4.203286205578907198e-01
4.203286205578907198e-01
4.310278945357279290e-01
4.310278945357279290e-01
4.310278945357279290e-01
4.272067252579289098e-01
4.272067252579289098e-01
4.226213221245700979e-01
4.226213221245700979e-01
4.226213221245700979e-01
4.421092854413450346e-01
4.421092854413450346e-01
4.424914023691249310e-01
4.424914023691249310e-01
4.424914023691249310e-01
4.424914023691249310e-01
4.424914023691249310e-01
4.268246083301490135e-01
4.268246083301490135e-01
4.268246083301490135e-01
4.264424914023691171e-01
4.264424914023691171e-01
4.218570882690103052e-01
4.218570882690103052e-01
4.218570882690103052e-01
4.138326327856324260e-01
4.138326327856324260e-01
4.348490638135269482e-01
4.348490638135269482e-01
4.348490638135269482e-01
4.268246083301490135e-01
4.268246083301490135e-01
4.172716851356514933e-01
4.172716851356514933e-01
4.172716851356514933e-01
4.333205961024073627e-01
4.333205961024073627e-01
4.123041650745127851e-01
4.123041650745127851e-01
4.123041650745127851e-01
4.145968666411922188e-01
4.145968666411922188e-01
4.237676729079098426e-01
4.237676729079098426e-01
4.237676729079098426e-01
4.073366450133740768e-01
4.073366450133740768e-01
4.012227741688956795e-01
4.012227741688956795e-01
4.012227741688956795e-01
3.974016048910966603e-01
3.974016048910966603e-01
4.088651127244937178e-01
4.088651127244937178e-01
4.088651127244937178e-01
3.947267863966373858e-01
3.947267863966373858e-01
4.111578142911730960e-01
4.111578142911730960e-01
4.111578142911730960e-01
4.088651127244937178e-01
4.088651127244937178e-01
3.882307986243790365e-01
3.882307986243790365e-01
3.882307986243790365e-01
3.943446694688574894e-01
3.943446694688574894e-01
3.928162017577378484e-01
3.928162017577378484e-01
3.928162017577378484e-01
3.909056171188383666e-01
3.909056171188383666e-01
3.847917462743599692e-01
3.847917462743599692e-01
3.847917462743599692e-01
3.805884600687810537e-01
3.805884600687810537e-01
3.840275124188001765e-01
3.840275124188001765e-01
3.840275124188001765e-01
3.870844478410393474e-01
3.870844478410393474e-01
3.775315246465418273e-01
3.775315246465418273e-01
3.775315246465418273e-01
3.756209400076423455e-01
3.756209400076423455e-01
3.767672907909820346e-01
3.767672907909820346e-01
3.767672907909820346e-01
3.698891860909438445e-01
3.698891860909438445e-01
3.717997707298433263e-01
3.717997707298433263e-01
3.717997707298433263e-01
3.771494077187619309e-01
3.771494077187619309e-01
3.675964845242644108e-01
3.675964845242644108e-01
3.675964845242644108e-01
3.832632785632403283e-01
3.832632785632403283e-01
3.687428353076040999e-01
3.687428353076040999e-01
3.687428353076040999e-01
3.664501337409247217e-01
3.664501337409247217e-01
3.687428353076040999e-01
3.687428353076040999e-01
3.687428353076040999e-01
3.584256782575467870e-01
3.584256782575467870e-01
3.565150936186473052e-01
3.565150936186473052e-01
3.523118074130683897e-01
3.523118074130683897e-01
3.523118074130683897e-01
3.557508597630875125e-01
3.557508597630875125e-01
3.633931983186854953e-01
3.633931983186854953e-01
3.633931983186854953e-01
3.653037829575850326e-01
3.653037829575850326e-01
3.393198318685518022e-01
3.393198318685518022e-01
3.393198318685518022e-01
3.450515857852503032e-01
3.450515857852503032e-01
3.427588842185708695e-01
3.427588842185708695e-01
3.427588842185708695e-01
3.446694688574704069e-01
3.446694688574704069e-01
3.492548719908292187e-01
3.492548719908292187e-01
3.492548719908292187e-01
3.335880779518532457e-01
3.335880779518532457e-01
3.297669086740542821e-01
3.297669086740542821e-01
3.297669086740542821e-01
3.473442873519296814e-01
3.473442873519296814e-01
3.343523118074130940e-01
3.343523118074130940e-01
3.343523118074130940e-01
3.343523118074130940e-01
3.343523118074130940e-01
3.267099732518150557e-01
3.267099732518150557e-01
3.267099732518150557e-01
3.324417271685135566e-01
3.324417271685135566e-01
3.274742071073748484e-01
3.274742071073748484e-01
3.274742071073748484e-01
3.186855177684371210e-01
3.186855177684371210e-01
3.267099732518150557e-01
3.267099732518150557e-01
3.267099732518150557e-01
3.056935422239205336e-01
3.056935422239205336e-01
3.098968284294994491e-01
3.098968284294994491e-01
3.098968284294994491e-01
3.137179977072984127e-01
3.137179977072984127e-01
3.041650745128008926e-01
3.041650745128008926e-01
3.041650745128008926e-01
3.018723729461215144e-01
3.018723729461215144e-01
2.907909820405044088e-01
2.907909820405044088e-01
2.907909820405044088e-01
3.018723729461215144e-01
3.018723729461215144e-01
3.056935422239205336e-01
3.056935422239205336e-01
3.056935422239205336e-01
2.949942682460833243e-01
2.949942682460833243e-01
2.957585021016431170e-01
2.957585021016431170e-01
2.957585021016431170e-01
3.022544898739014108e-01
3.022544898739014108e-01
3.037829575850209962e-01
3.037829575850209962e-01
3.037829575850209962e-01
2.850592281238059078e-01
2.850592281238059078e-01
2.896446312571647197e-01
2.896446312571647197e-01
2.896446312571647197e-01
2.911730989682843052e-01
2.911730989682843052e-01
2.820022927015666814e-01
2.820022927015666814e-01
2.820022927015666814e-01
2.785632403515475586e-01
2.785632403515475586e-01
2.965227359572029098e-01
2.965227359572029098e-01
2.965227359572029098e-01
2.739778372181887467e-01
2.739778372181887467e-01
2.888803974016048715e-01
2.888803974016048715e-01
2.888803974016048715e-01
2.693924340848299348e-01
2.693924340848299348e-01
2.762705387848681804e-01
2.762705387848681804e-01
2.762705387848681804e-01
2.827665265571264741e-01
2.827665265571264741e-01
2.751241880015284913e-01
2.751241880015284913e-01
2.751241880015284913e-01
2.701566679403897830e-01
2.701566679403897830e-01
2.667176155903706603e-01
2.667176155903706603e-01
2.667176155903706603e-01
2.808559419182269923e-01
2.808559419182269923e-01
2.720672525792892649e-01
2.720672525792892649e-01
2.720672525792892649e-01
2.659533817348108675e-01
2.659533817348108675e-01
2.816201757737867850e-01
2.816201757737867850e-01
2.816201757737867850e-01
2.820022927015666814e-01
2.820022927015666814e-01
2.762705387848681804e-01
2.762705387848681804e-01
2.762705387848681804e-01
2.690103171570500384e-01
2.690103171570500384e-01
2.758884218570882840e-01
2.758884218570882840e-01
2.758884218570882840e-01
2.621322124570118484e-01
2.621322124570118484e-01
2.663354986625907639e-01
2.663354986625907639e-01
2.663354986625907639e-01
2.606037447458922629e-01
2.606037447458922629e-01
2.747420710737485394e-01
2.747420710737485394e-01
2.747420710737485394e-01
2.751241880015284913e-01
2.751241880015284913e-01
2.705387848681696794e-01
2.705387848681696794e-01
2.705387848681696794e-01
2.774168895682078695e-01
2.774168895682078695e-01
2.686282002292701421e-01
2.686282002292701421e-01
2.686282002292701421e-01
2.751241880015284913e-01
2.751241880015284913e-01
2.594573939625525183e-01
2.594573939625525183e-01
2.594573939625525183e-01
2.548719908291937064e-01
2.548719908291937064e-01
2.716851356515093685e-01
2.716851356515093685e-01
2.716851356515093685e-01
2.533435231180741209e-01
2.533435231180741209e-01
2.586931601069927256e-01
2.586931601069927256e-01
2.586931601069927256e-01
2.468475353458158272e-01
2.468475353458158272e-01
2.491402369124952332e-01
2.491402369124952332e-01
2.491402369124952332e-01
2.502865876958349500e-01
2.502865876958349500e-01
2.613679786014520556e-01
2.613679786014520556e-01
2.613679786014520556e-01
2.483760030569354127e-01
2.483760030569354127e-01
2.560183416125334510e-01
2.560183416125334510e-01
2.560183416125334510e-01
2.544898739014138100e-01
2.544898739014138100e-01
2.537256400458540173e-01
2.537256400458540173e-01
2.537256400458540173e-01
2.506687046236148464e-01
2.506687046236148464e-01
2.414978983568972226e-01
2.414978983568972226e-01
2.414978983568972226e-01
2.579289262514329328e-01
2.579289262514329328e-01
2.575468093236530365e-01
2.575468093236530365e-01
2.575468093236530365e-01
2.372946121513183071e-01
2.372946121513183071e-01
2.575468093236530365e-01
2.575468093236530365e-01
2.407336645013374021e-01
2.407336645013374021e-01
2.407336645013374021e-01
2.541077569736339137e-01
2.541077569736339137e-01
2.399694306457776094e-01
2.399694306457776094e-01
2.399694306457776094e-01
2.315628582346198061e-01
2.315628582346198061e-01
2.437905999235766008e-01
2.437905999235766008e-01
2.437905999235766008e-01
2.426442491402369117e-01
2.426442491402369117e-01
2.342376767290791084e-01
2.342376767290791084e-01
2.342376767290791084e-01
2.384409629346579962e-01
2.384409629346579962e-01
2.365303782957585144e-01
2.365303782957585144e-01
2.365303782957585144e-01
2.388230798624378926e-01
2.388230798624378926e-01
2.307986243790599856e-01
2.307986243790599856e-01
2.307986243790599856e-01
2.227741688956820787e-01
2.227741688956820787e-01
2.162781811234237572e-01
2.162781811234237572e-01
2.162781811234237572e-01
2.315628582346198061e-01
2.315628582346198061e-01
2.208635842567825691e-01
2.208635842567825691e-01
2.208635842567825691e-01
2.353840275124187975e-01
2.353840275124187975e-01
2.250668704623614846e-01
2.250668704623614846e-01
2.250668704623614846e-01
2.235384027512418714e-01
2.235384027512418714e-01
2.189529996178830595e-01
2.189529996178830595e-01
2.189529996178830595e-01
2.235384027512418714e-01
2.235384027512418714e-01
2.281238058846006833e-01
2.281238058846006833e-01
2.281238058846006833e-01
2.223920519679021823e-01
2.223920519679021823e-01
2.109285441345051526e-01
2.109285441345051526e-01
2.109285441345051526e-01
2.220099350401222860e-01
2.220099350401222860e-01
2.086358425678257467e-01
2.086358425678257467e-01
2.086358425678257467e-01
2.086358425678257467e-01
2.086358425678257467e-01
2.113106610622850490e-01
2.113106610622850490e-01
2.113106610622850490e-01
2.204814673290026728e-01
2.204814673290026728e-01
2.040504394344669348e-01
2.040504394344669348e-01
2.040504394344669348e-01
2.074894917844860576e-01
2.074894917844860576e-01
2.094000764233855671e-01
2.094000764233855671e-01
2.094000764233855671e-01
2.021398547955674529e-01
2.021398547955674529e-01
2.235384027512418714e-01
2.235384027512418714e-01
2.235384027512418714e-01
2.101643102789453599e-01
2.101643102789453599e-01
2.067252579289262648e-01
2.067252579289262648e-01
2.067252579289262648e-01
1.937332823844096219e-01
1.937332823844096219e-01
2.105464272067252562e-01
2.105464272067252562e-01
2.105464272067252562e-01
1.918226977455101123e-01
1.918226977455101123e-01
2.017577378677875566e-01
2.017577378677875566e-01
2.017577378677875566e-01
1.971723347344287447e-01
1.971723347344287447e-01
2.055789071455865480e-01
2.055789071455865480e-01
2.055789071455865480e-01
1.967902178066488483e-01
1.967902178066488483e-01
1.998471532288880470e-01
1.998471532288880470e-01
1.998471532288880470e-01
2.055789071455865480e-01
2.055789071455865480e-01
2.051967902178066516e-01
2.051967902178066516e-01
2.051967902178066516e-01
1.868551776843714041e-01
1.868551776843714041e-01
1.994650363011081506e-01
1.994650363011081506e-01
1.994650363011081506e-01
1.925869316010699328e-01
1.925869316010699328e-01
2.044325563622468589e-01
2.044325563622468589e-01
2.044325563622468589e-01
1.883836453954910173e-01
1.883836453954910173e-01
1.899121131066106305e-01
1.899121131066106305e-01
1.899121131066106305e-01
1.944975162399694424e-01
1.944975162399694424e-01
1.830340084065724127e-01
1.830340084065724127e-01
1.830340084065724127e-01
1.983186855177684338e-01
1.983186855177684338e-01
2.017577378677875566e-01
2.017577378677875566e-01
2.017577378677875566e-01
1.776843714176538080e-01
1.776843714176538080e-01
1.845624761176920259e-01
1.845624761176920259e-01
1.845624761176920259e-01
1.868551776843714041e-01
1.868551776843714041e-01
1.964081008788689242e-01
1.964081008788689242e-01
1.964081008788689242e-01
1.761559037065341948e-01
1.761559037065341948e-01
2.006113870844478397e-01
2.006113870844478397e-01
2.006113870844478397e-01
1.757737867787542985e-01
1.757737867787542985e-01
1.929690485288498292e-01
1.929690485288498292e-01
1.929690485288498292e-01
1.964081008788689242e-01
1.964081008788689242e-01
1.922048146732900364e-01
1.922048146732900364e-01
1.922048146732900364e-01
1.807413068398930067e-01
1.807413068398930067e-01
1.880015284677111209e-01
1.880015284677111209e-01
1.880015284677111209e-01
1.944975162399694424e-01
1.944975162399694424e-01
1.738632021398547889e-01
1.738632021398547889e-01
1.738632021398547889e-01
1.761559037065341948e-01
1.761559037065341948e-01
1.845624761176920259e-01
1.845624761176920259e-01
1.845624761176920259e-01
1.887657623232709136e-01
1.887657623232709136e-01
1.753916698509744021e-01
1.753916698509744021e-01
1.753916698509744021e-01
1.685135651509361843e-01
1.685135651509361843e-01
1.795949560565533176e-01
1.795949560565533176e-01
1.795949560565533176e-01
1.727168513565150998e-01
1.727168513565150998e-01
1.776843714176538080e-01
1.776843714176538080e-01
1.776843714176538080e-01
1.849445930454719222e-01
1.849445930454719222e-01
1.715705005731753829e-01
1.715705005731753829e-01
1.715705005731753829e-01
1.834161253343523090e-01
1.834161253343523090e-01
1.841803591899121018e-01
1.841803591899121018e-01
1.925869316010699328e-01
1.925869316010699328e-01
1.925869316010699328e-01
1.704241497898356938e-01
1.704241497898356938e-01
1.730989682842949962e-01
1.730989682842949962e-01
1.730989682842949962e-01
1.769201375620939876e-01
1.769201375620939876e-01
1.826518914787925163e-01
1.826518914787925163e-01
1.826518914787925163e-01
1.654566297286969856e-01
1.654566297286969856e-01
1.822697745510126199e-01
1.822697745510126199e-01
1.822697745510126199e-01
1.776843714176538080e-01
1.776843714176538080e-01
1.776843714176538080e-01
1.776843714176538080e-01
1.776843714176538080e-01
1.795949560565533176e-01
1.795949560565533176e-01
1.669850974398165711e-01
1.669850974398165711e-01
1.669850974398165711e-01
1.685135651509361843e-01
1.685135651509361843e-01
1.815055406954527994e-01
1.815055406954527994e-01
1.815055406954527994e-01
1.803591899121131104e-01
1.803591899121131104e-01
1.857088269010317150e-01
1.857088269010317150e-01
1.857088269010317150e-01
1.704241497898356938e-01
1.704241497898356938e-01
1.631639281620175796e-01
1.631639281620175796e-01
1.631639281620175796e-01
1.795949560565533176e-01
1.795949560565533176e-01
1.795949560565533176e-01
1.795949560565533176e-01
1.795949560565533176e-01
1.666029805120366747e-01
1.666029805120366747e-01
1.761559037065341948e-01
1.761559037065341948e-01
1.761559037065341948e-01
1.688956820787160806e-01
1.688956820787160806e-01
1.658387466564768820e-01
1.658387466564768820e-01
1.658387466564768820e-01
1.776843714176538080e-01
1.776843714176538080e-01
1.555215896064195691e-01
1.555215896064195691e-01
1.555215896064195691e-01
1.578142911730989750e-01
1.578142911730989750e-01
1.700420328620557975e-01
1.700420328620557975e-01
1.700420328620557975e-01
1.559037065341994654e-01
1.559037065341994654e-01
1.574321742453190787e-01
1.574321742453190787e-01
1.574321742453190787e-01
1.574321742453190787e-01
1.574321742453190787e-01
1.685135651509361843e-01
1.685135651509361843e-01
1.685135651509361843e-01
1.803591899121131104e-01
1.803591899121131104e-01
1.528467711119602668e-01
1.528467711119602668e-01
1.528467711119602668e-01
1.589606419564386641e-01
1.589606419564386641e-01
1.620175773786778628e-01
1.620175773786778628e-01
1.620175773786778628e-01
1.685135651509361843e-01
1.685135651509361843e-01
1.662208635842567783e-01
1.662208635842567783e-01
1.662208635842567783e-01
1.688956820787160806e-01
1.688956820787160806e-01
1.750095529231945057e-01
1.750095529231945057e-01
1.750095529231945057e-01
1.742453190676346853e-01
1.742453190676346853e-01
1.593427588842185605e-01
1.593427588842185605e-01
1.593427588842185605e-01
1.494077187619411440e-01
1.494077187619411440e-01
1.517004203286205499e-01
1.517004203286205499e-01
1.517004203286205499e-01
1.559037065341994654e-01
1.559037065341994654e-01
1.727168513565150998e-01
1.727168513565150998e-01
1.727168513565150998e-01
1.734810852120748925e-01
1.734810852120748925e-01
1.635460450897974760e-01
1.635460450897974760e-01
1.635460450897974760e-01
1.708062667176155902e-01
1.708062667176155902e-01
1.711883836453954866e-01
1.711883836453954866e-01
1.711883836453954866e-01
1.604891096675582773e-01
1.604891096675582773e-01
1.455865494841421526e-01
1.455865494841421526e-01
1.455865494841421526e-01
1.612533435231180701e-01
1.612533435231180701e-01
1.543752388230798522e-01
1.543752388230798522e-01
1.543752388230798522e-01
1.669850974398165711e-01
1.669850974398165711e-01
1.501719526175009645e-01
1.501719526175009645e-01
1.501719526175009645e-01
1.513183034008406536e-01
1.513183034008406536e-01
1.608712265953381737e-01
1.608712265953381737e-01
1.608712265953381737e-01
1.551394726786396727e-01
1.551394726786396727e-01
1.490256018341612476e-01
1.490256018341612476e-01
1.490256018341612476e-01
1.562858234619793618e-01
1.562858234619793618e-01
1.692777990064959770e-01
1.692777990064959770e-01
1.692777990064959770e-01
1.711883836453954866e-01
1.711883836453954866e-01
1.723347344287352034e-01
1.723347344287352034e-01
1.723347344287352034e-01
1.478792510508215585e-01
1.478792510508215585e-01
1.497898356897210681e-01
1.497898356897210681e-01
1.497898356897210681e-01
1.440580817730225394e-01
1.440580817730225394e-01
1.562858234619793618e-01
1.562858234619793618e-01
1.562858234619793618e-01
1.444401987008024357e-01
1.444401987008024357e-01
1.448223156285823598e-01
1.448223156285823598e-01
1.448223156285823598e-01
1.509361864730607572e-01
1.509361864730607572e-01
1.528467711119602668e-01
1.528467711119602668e-01
1.528467711119602668e-01
1.608712265953381737e-01
1.608712265953381737e-01
1.593427588842185605e-01
1.593427588842185605e-01
1.593427588842185605e-01
1.505540695452808608e-01
1.505540695452808608e-01
1.608712265953381737e-01
1.608712265953381737e-01
1.608712265953381737e-01
1.490256018341612476e-01
1.490256018341612476e-01
1.474971341230416622e-01
1.474971341230416622e-01
1.474971341230416622e-01
1.616354604508979664e-01
1.616354604508979664e-01
1.646923958731371929e-01
1.646923958731371929e-01
1.646923958731371929e-01
1.581964081008788714e-01
1.581964081008788714e-01
1.589606419564386641e-01
1.589606419564386641e-01
1.589606419564386641e-01
1.494077187619411440e-01
1.494077187619411440e-01
1.494077187619411440e-01
1.494077187619411440e-01
1.467329002674818417e-01
1.467329002674818417e-01
1.467329002674818417e-01
1.440580817730225394e-01
1.440580817730225394e-01
1.654566297286969856e-01
1.654566297286969856e-01
1.654566297286969856e-01
1.478792510508215585e-01
1.478792510508215585e-01
1.539931218952999559e-01
1.539931218952999559e-01
1.539931218952999559e-01
1.547573557508597764e-01
1.547573557508597764e-01
1.696599159342759011e-01
1.696599159342759011e-01
1.696599159342759011e-01
1.482613679786014549e-01
1.482613679786014549e-01
1.547573557508597764e-01
1.547573557508597764e-01
1.547573557508597764e-01
1.505540695452808608e-01
1.505540695452808608e-01
1.459686664119220489e-01
1.459686664119220489e-01
1.459686664119220489e-01
1.528467711119602668e-01
1.528467711119602668e-01
1.623996943064577869e-01
1.623996943064577869e-01
1.623996943064577869e-01
1.452044325563622562e-01
1.452044325563622562e-01
1.471150171952617380e-01
1.471150171952617380e-01
