2.009935040122277361e-01
2.009935040122277361e-01
1.761559037065341948e-01
1.761559037065341948e-01
1.761559037065341948e-01
1.837982422621322054e-01
1.837982422621322054e-01
1.757737867787542985e-01
1.757737867787542985e-01
1.757737867787542985e-01
1.941153993121895183e-01
1.941153993121895183e-01
1.704241497898356938e-01
1.704241497898356938e-01
1.704241497898356938e-01
1.902942300343905269e-01
1.902942300343905269e-01
1.902942300343905269e-01
1.902942300343905269e-01
1.902942300343905269e-01
1.906763469621704232e-01
1.906763469621704232e-01
1.887657623232709136e-01
1.887657623232709136e-01
1.887657623232709136e-01
1.639281620175773724e-01
1.639281620175773724e-01
1.849445930454719222e-01
1.849445930454719222e-01
1.849445930454719222e-01
1.780664883454337044e-01
1.780664883454337044e-01
1.566679403897592582e-01
1.566679403897592582e-01
1.566679403897592582e-01
1.536110049675200595e-01
1.536110049675200595e-01
1.666029805120366747e-01
1.666029805120366747e-01
1.666029805120366747e-01
1.723347344287352034e-01
1.723347344287352034e-01
1.715705005731753829e-01
1.715705005731753829e-01
1.715705005731753829e-01
1.505540695452808608e-01
1.505540695452808608e-01
1.589606419564386641e-01
1.589606419564386641e-01
1.589606419564386641e-01
1.459686664119220489e-01
1.459686664119220489e-01
1.520825372564004463e-01
1.520825372564004463e-01
1.520825372564004463e-01
1.597248758119984846e-01
1.597248758119984846e-01
1.387084447841039347e-01
1.387084447841039347e-01
1.387084447841039347e-01
1.459686664119220489e-01
1.459686664119220489e-01
1.501719526175009645e-01
1.501719526175009645e-01
1.501719526175009645e-01
1.616354604508979664e-01
1.616354604508979664e-01
1.402369124952235480e-01
1.402369124952235480e-01
1.402369124952235480e-01
1.402369124952235480e-01
1.402369124952235480e-01
1.551394726786396727e-01
1.551394726786396727e-01
1.551394726786396727e-01
1.352693924340848397e-01
1.352693924340848397e-01
1.280091708062667255e-01
1.280091708062667255e-01
1.280091708062667255e-01
1.444401987008024357e-01
1.444401987008024357e-01
1.325945739396255374e-01
1.325945739396255374e-01
1.325945739396255374e-01
1.398547955674436516e-01
1.398547955674436516e-01
1.463507833397019453e-01
1.463507833397019453e-01
1.463507833397019453e-01
1.463507833397019453e-01
1.463507833397019453e-01
1.299197554451662073e-01
1.299197554451662073e-01
1.299197554451662073e-01
1.356515093618647361e-01
1.356515093618647361e-01
1.238058846006878100e-01
1.238058846006878100e-01
1.238058846006878100e-01
1.455865494841421526e-01
1.455865494841421526e-01
1.226595338173481070e-01
1.226595338173481070e-01
1.226595338173481070e-01
1.234237676729079136e-01
1.234237676729079136e-01
1.406190294230034443e-01
1.406190294230034443e-01
1.406190294230034443e-01
1.264807030951471123e-01
1.264807030951471123e-01
1.367978601452044252e-01
1.367978601452044252e-01
1.367978601452044252e-01
1.390905617118838311e-01
1.390905617118838311e-01
1.310661062285059242e-01
1.310661062285059242e-01
1.310661062285059242e-01
1.264807030951471123e-01
1.264807030951471123e-01
1.146350783339702001e-01
1.146350783339702001e-01
1.146350783339702001e-01
1.322124570118456133e-01
1.322124570118456133e-01
1.318303400840657169e-01
1.318303400840657169e-01
1.318303400840657169e-01
1.089033244172716852e-01
1.089033244172716852e-01
1.333588077951853301e-01
1.333588077951853301e-01
1.333588077951853301e-01
1.230416507451280034e-01
1.230416507451280034e-01
1.096675582728314918e-01
1.096675582728314918e-01
1.096675582728314918e-01
1.092854413450515816e-01
1.092854413450515816e-01
1.306839893007260278e-01
1.306839893007260278e-01
1.306839893007260278e-01
1.245701184562476166e-01
1.245701184562476166e-01
1.303018723729461315e-01
1.303018723729461315e-01
1.303018723729461315e-01
1.226595338173481070e-01
1.226595338173481070e-01
1.089033244172716852e-01
1.089033244172716852e-01
1.089033244172716852e-01
1.047000382116927836e-01
1.047000382116927836e-01
1.276270538784868291e-01
1.276270538784868291e-01
1.276270538784868291e-01
1.081390905617118786e-01
1.081390905617118786e-01
1.264807030951471123e-01
1.264807030951471123e-01
1.264807030951471123e-01
1.058463889950324865e-01
1.058463889950324865e-01
1.230416507451280034e-01
1.230416507451280034e-01
1.230416507451280034e-01
1.089033244172716852e-01
1.089033244172716852e-01
1.230416507451280034e-01
1.230416507451280034e-01
1.230416507451280034e-01
1.226595338173481070e-01
1.226595338173481070e-01
1.211310661062285077e-01
1.211310661062285077e-01
1.211310661062285077e-01
1.272449369507069050e-01
1.272449369507069050e-01
1.069927397783721756e-01
1.069927397783721756e-01
1.069927397783721756e-01
1.218952999617883004e-01
1.218952999617883004e-01
1.268628200229270087e-01
1.268628200229270087e-01
1.268628200229270087e-01
1.211310661062285077e-01
1.211310661062285077e-01
1.012609858616736747e-01
1.012609858616736747e-01
1.012609858616736747e-01
1.161635460450897994e-01
1.161635460450897994e-01
1.176920137562093988e-01
1.176920137562093988e-01
1.176920137562093988e-01
1.127244936950706905e-01
1.127244936950706905e-01
9.705769965609475913e-02
9.705769965609475913e-02
1.092854413450515816e-01
1.092854413450515816e-01
1.092854413450515816e-01
1.207489491784486113e-01
1.207489491784486113e-01
9.629346580053496640e-02
9.629346580053496640e-02
9.629346580053496640e-02
1.203668322506687011e-01
1.203668322506687011e-01
1.004967520061138680e-01
1.004967520061138680e-01
1.004967520061138680e-01
1.253343523118074232e-01
1.253343523118074232e-01
1.092854413450515816e-01
1.092854413450515816e-01
1.092854413450515816e-01
1.131066106228505869e-01
1.131066106228505869e-01
1.016431027894535710e-01
1.016431027894535710e-01
1.016431027894535710e-01
1.215131830340084040e-01
1.215131830340084040e-01
1.077569736339319822e-01
1.077569736339319822e-01
1.077569736339319822e-01
1.211310661062285077e-01
1.211310661062285077e-01
1.054642720672525763e-01
1.054642720672525763e-01
1.054642720672525763e-01
1.085212074894917889e-01
1.085212074894917889e-01
1.165456629728696958e-01
1.165456629728696958e-01
1.165456629728696958e-01
1.230416507451280034e-01
1.230416507451280034e-01
1.050821551394726799e-01
1.050821551394726799e-01
1.050821551394726799e-01
9.743981658387466938e-02
9.743981658387466938e-02
9.743981658387466938e-02
9.743981658387466938e-02
9.743981658387466938e-02
1.146350783339702001e-01
1.146350783339702001e-01
1.111960259839510912e-01
1.111960259839510912e-01
1.111960259839510912e-01
1.153993121895299928e-01
1.153993121895299928e-01
1.157814291173099031e-01
1.157814291173099031e-01
1.157814291173099031e-01
9.782193351165456574e-02
9.782193351165456574e-02
1.173098968284295024e-01
1.173098968284295024e-01
1.173098968284295024e-01
1.016431027894535710e-01
1.016431027894535710e-01
1.081390905617118786e-01
1.081390905617118786e-01
1.081390905617118786e-01
1.008788689338937783e-01
1.008788689338937783e-01
1.001146350783339717e-01
1.001146350783339717e-01
1.001146350783339717e-01
1.016431027894535710e-01
1.016431027894535710e-01
1.157814291173099031e-01
1.157814291173099031e-01
1.157814291173099031e-01
1.119602598395108839e-01
1.119602598395108839e-01
9.935040122277416508e-02
9.935040122277416508e-02
9.935040122277416508e-02
8.865112724493695584e-02
8.865112724493695584e-02
9.973251815055407532e-02
9.973251815055407532e-02
9.973251815055407532e-02
1.165456629728696958e-01
1.165456629728696958e-01
1.016431027894535710e-01
1.016431027894535710e-01
1.016431027894535710e-01
9.361864730607566409e-02
9.361864730607566409e-02
1.111960259839510912e-01
1.111960259839510912e-01
1.111960259839510912e-01
9.132594573939625815e-02
9.132594573939625815e-02
9.323653037829575385e-02
9.323653037829575385e-02
9.323653037829575385e-02
9.858616736721437235e-02
9.858616736721437235e-02
8.903324417271685220e-02
8.903324417271685220e-02
8.903324417271685220e-02
1.016431027894535710e-01
1.016431027894535710e-01
1.066106228505922793e-01
1.066106228505922793e-01
1.066106228505922793e-01
9.017959495605655518e-02
9.017959495605655518e-02
1.024073366450133776e-01
1.024073366450133776e-01
1.024073366450133776e-01
1.131066106228505869e-01
1.131066106228505869e-01
9.132594573939625815e-02
9.132594573939625815e-02
9.132594573939625815e-02
1.119602598395108839e-01
1.119602598395108839e-01
9.056171188383645154e-02
9.056171188383645154e-02
9.056171188383645154e-02
9.743981658387466938e-02
9.743981658387466938e-02
8.979747802827665881e-02
8.979747802827665881e-02
8.979747802827665881e-02
8.291937332823844098e-02
8.291937332823844098e-02
8.482995796713795056e-02
8.482995796713795056e-02
8.482995796713795056e-02
9.705769965609475913e-02
9.705769965609475913e-02
1.081390905617118786e-01
1.081390905617118786e-01
1.081390905617118786e-01
1.066106228505922793e-01
1.066106228505922793e-01
9.094382881161634791e-02
9.094382881161634791e-02
9.094382881161634791e-02
8.597630875047763965e-02
8.597630875047763965e-02
1.035536874283530806e-01
1.035536874283530806e-01
1.035536874283530806e-01
9.285441345051585749e-02
9.285441345051585749e-02
8.444784103935804032e-02
8.444784103935804032e-02
8.444784103935804032e-02
1.096675582728314918e-01
1.096675582728314918e-01
1.073748567061520859e-01
1.073748567061520859e-01
1.073748567061520859e-01
1.050821551394726799e-01
1.050821551394726799e-01
9.247229652273596112e-02
9.247229652273596112e-02
9.247229652273596112e-02
9.935040122277416508e-02
9.935040122277416508e-02
1.150171952617500964e-01
1.150171952617500964e-01
1.150171952617500964e-01
1.092854413450515816e-01
1.092854413450515816e-01
9.858616736721437235e-02
9.858616736721437235e-02
9.858616736721437235e-02
1.027894535727932740e-01
1.027894535727932740e-01
1.050821551394726799e-01
1.050821551394726799e-01
1.050821551394726799e-01
1.260985861673672159e-01
1.260985861673672159e-01
1.333588077951853301e-01
1.333588077951853301e-01
1.333588077951853301e-01
1.417653802063431334e-01
1.417653802063431334e-01
1.413832632785632371e-01
1.413832632785632371e-01
1.413832632785632371e-01
1.566679403897592582e-01
1.566679403897592582e-01
1.505540695452808608e-01
1.505540695452808608e-01
1.505540695452808608e-01
1.765380206343140912e-01
1.765380206343140912e-01
1.669850974398165711e-01
1.669850974398165711e-01
1.669850974398165711e-01
1.880015284677111209e-01
1.880015284677111209e-01
2.055789071455865480e-01
2.055789071455865480e-01
2.090179594956056430e-01
2.090179594956056430e-01
2.090179594956056430e-01
2.082537256400458503e-01
2.082537256400458503e-01
2.254489873901413810e-01
2.254489873901413810e-01
2.254489873901413810e-01
2.361482613679785902e-01
2.361482613679785902e-01
2.670997325181505566e-01
2.670997325181505566e-01
2.670997325181505566e-01
2.594573939625525183e-01
2.594573939625525183e-01
2.946121513183034279e-01
2.946121513183034279e-01
2.946121513183034279e-01
2.995796713794421362e-01
2.995796713794421362e-01
3.221245701184562438e-01
3.221245701184562438e-01
3.221245701184562438e-01
3.366450133740924722e-01
3.366450133740924722e-01
3.278563240351547448e-01
3.278563240351547448e-01
3.278563240351547448e-01
3.404661826518914913e-01
3.404661826518914913e-01
3.641574321742453435e-01
3.641574321742453435e-01
3.641574321742453435e-01
3.725640045854031190e-01
3.725640045854031190e-01
3.916698509743981593e-01
3.916698509743981593e-01
3.916698509743981593e-01
3.920519679021780557e-01
3.920519679021780557e-01
4.096293465800535105e-01
4.096293465800535105e-01
4.096293465800535105e-01
4.210928544134505125e-01
4.210928544134505125e-01
4.344669468857470518e-01
4.344669468857470518e-01
4.344669468857470518e-01
4.287351929690485508e-01
4.287351929690485508e-01
4.405808177302254491e-01
4.405808177302254491e-01
4.405808177302254491e-01
4.463125716469239501e-01
4.463125716469239501e-01
4.749713412304165105e-01
4.749713412304165105e-01
4.749713412304165105e-01
4.661826518914787831e-01
4.661826518914787831e-01
4.787925105082155297e-01
4.787925105082155297e-01
4.787925105082155297e-01
4.986625907527703627e-01
4.986625907527703627e-01
4.868169659915934089e-01
4.868169659915934089e-01
4.868169659915934089e-01
5.131830340084065911e-01
5.131830340084065911e-01
5.120366832250669020e-01
5.120366832250669020e-01
5.120366832250669020e-01
5.170042032862055548e-01
5.170042032862055548e-01
5.215896064195644222e-01
5.215896064195644222e-01
5.215896064195644222e-01
5.177684371417653475e-01
5.177684371417653475e-01
5.277034772640427640e-01
5.277034772640427640e-01
5.277034772640427640e-01
5.464272067252579079e-01
5.464272067252579079e-01
5.319067634696217350e-01
5.319067634696217350e-01
5.319067634696217350e-01
5.491020252197171825e-01
5.491020252197171825e-01
5.544516622086358426e-01
5.544516622086358426e-01
5.544516622086358426e-01
5.418418035918991515e-01
5.418418035918991515e-01
5.494841421474970788e-01
5.494841421474970788e-01
5.494841421474970788e-01
5.525410775697363608e-01
5.525410775697363608e-01
5.456629728696981152e-01
5.456629728696981152e-01
5.456629728696981152e-01
5.647688192586931555e-01
5.647688192586931555e-01
5.502483760030569826e-01
5.502483760030569826e-01
5.502483760030569826e-01
5.590370653419945990e-01
5.590370653419945990e-01
5.502483760030569826e-01
5.502483760030569826e-01
5.502483760030569826e-01
5.682078716087122228e-01
5.682078716087122228e-01
5.475735575085975970e-01
5.475735575085975970e-01
5.475735575085975970e-01
5.548337791364157390e-01
5.548337791364157390e-01
5.632403515475735700e-01
5.632403515475735700e-01
5.632403515475735700e-01
5.487199082919372861e-01
5.487199082919372861e-01
5.662972869698127409e-01
5.662972869698127409e-01
5.662972869698127409e-01
5.502483760030569826e-01
5.502483760030569826e-01
5.525410775697363608e-01
5.525410775697363608e-01
5.525410775697363608e-01
5.456629728696981152e-01
5.456629728696981152e-01
5.517768437141765681e-01
5.517768437141765681e-01
5.517768437141765681e-01
5.368742835307603878e-01
5.368742835307603878e-01
5.475735575085975970e-01
5.475735575085975970e-01
5.475735575085975970e-01
5.414596866641192552e-01
5.414596866641192552e-01
5.391669850974397660e-01
5.391669850974397660e-01
5.391669850974397660e-01
5.403133358807795661e-01
5.403133358807795661e-01
5.315246465418418387e-01
5.315246465418418387e-01
5.315246465418418387e-01
5.338173481085212169e-01
5.338173481085212169e-01
5.406954528085594625e-01
5.406954528085594625e-01
5.406954528085594625e-01
5.227359572029041113e-01
5.227359572029041113e-01
5.376385173863201805e-01
5.376385173863201805e-01
5.376385173863201805e-01
5.380206343141000769e-01
5.380206343141000769e-01
5.154757355750859693e-01
5.154757355750859693e-01
5.154757355750859693e-01
5.250286587695834895e-01
5.250286587695834895e-01
5.204432556362247331e-01
5.204432556362247331e-01
5.204432556362247331e-01
5.208253725640046294e-01
5.208253725640046294e-01
5.269392434084829713e-01
5.269392434084829713e-01
5.269392434084829713e-01
5.001910584638900037e-01
5.001910584638900037e-01
5.231180741306840076e-01
5.231180741306840076e-01
5.231180741306840076e-01
5.189147879251050366e-01
5.189147879251050366e-01
5.112724493695071093e-01
5.112724493695071093e-01
5.112724493695071093e-01
5.047764615972487601e-01
5.047764615972487601e-01
4.917844860527321171e-01
4.917844860527321171e-01
4.917844860527321171e-01
4.795567443637753224e-01
4.795567443637753224e-01
4.814673290026748043e-01
4.814673290026748043e-01
4.814673290026748043e-01
4.906381352693924280e-01
4.906381352693924280e-01
4.898739014138326353e-01
4.898739014138326353e-01
4.856706152082537198e-01
4.856706152082537198e-01
4.856706152082537198e-01
4.845242644249140307e-01
4.845242644249140307e-01
4.596866641192204894e-01
4.596866641192204894e-01
4.596866641192204894e-01
4.680932365303783205e-01
4.680932365303783205e-01
4.745892243026366142e-01
4.745892243026366142e-01
4.745892243026366142e-01
4.501337409247229693e-01
4.501337409247229693e-01
4.474589224302636392e-01
4.474589224302636392e-01
4.474589224302636392e-01
4.417271685135651382e-01
4.417271685135651382e-01
4.359954145968666372e-01
4.359954145968666372e-01
4.359954145968666372e-01
4.562476117692013666e-01
4.562476117692013666e-01
4.455483377913641574e-01
4.455483377913641574e-01
4.455483377913641574e-01
4.237676729079098426e-01
4.237676729079098426e-01
4.218570882690103052e-01
4.218570882690103052e-01
4.218570882690103052e-01
4.126862820022926814e-01
4.126862820022926814e-01
4.077187619411539732e-01
4.077187619411539732e-01
4.077187619411539732e-01
4.237676729079098426e-01
4.237676729079098426e-01
4.065724111578142841e-01
4.065724111578142841e-01
4.065724111578142841e-01
3.935804356132976967e-01
3.935804356132976967e-01
3.817348108521207428e-01
3.817348108521207428e-01
3.817348108521207428e-01
3.794421092854413646e-01
3.794421092854413646e-01
3.847917462743599692e-01
3.847917462743599692e-01
3.847917462743599692e-01
3.775315246465418273e-01
3.775315246465418273e-01
3.702713030187237409e-01
3.702713030187237409e-01
3.702713030187237409e-01
3.591899121131066352e-01
3.591899121131066352e-01
3.618647306075659098e-01
3.618647306075659098e-01
3.618647306075659098e-01
3.416125334352311804e-01
3.416125334352311804e-01
3.335880779518532457e-01
3.335880779518532457e-01
3.335880779518532457e-01
3.316774933129537639e-01
3.316774933129537639e-01
3.217424531906763474e-01
3.217424531906763474e-01
3.217424531906763474e-01
3.175391669850974319e-01
3.175391669850974319e-01
3.129537638517386200e-01
3.129537638517386200e-01
3.129537638517386200e-01
3.228888039740160365e-01
3.228888039740160365e-01
3.060756591517004299e-01
3.060756591517004299e-01
3.060756591517004299e-01
3.129537638517386200e-01
3.129537638517386200e-01
2.877340466182651824e-01
2.877340466182651824e-01
2.877340466182651824e-01
2.884982804738249751e-01
2.884982804738249751e-01
2.969048528849828061e-01
2.969048528849828061e-01
2.969048528849828061e-01
2.797095911348873032e-01
2.797095911348873032e-01
2.789453572793274549e-01
2.789453572793274549e-01
2.789453572793274549e-01
2.674818494459304530e-01
2.674818494459304530e-01
2.758884218570882840e-01
2.758884218570882840e-01
2.758884218570882840e-01
2.755063049293083877e-01
2.755063049293083877e-01
2.697745510126098312e-01
2.697745510126098312e-01
2.697745510126098312e-01
2.560183416125334510e-01
2.560183416125334510e-01
2.755063049293083877e-01
2.755063049293083877e-01
2.755063049293083877e-01
2.705387848681696794e-01
2.705387848681696794e-01
2.583110431792128292e-01
2.583110431792128292e-01
2.583110431792128292e-01
2.636606801681314338e-01
2.636606801681314338e-01
2.502865876958349500e-01
2.502865876958349500e-01
2.502865876958349500e-01
2.514329384791746391e-01
2.514329384791746391e-01
2.617500955292319520e-01
2.617500955292319520e-01
2.617500955292319520e-01
2.388230798624378926e-01
2.388230798624378926e-01
2.334734428735192879e-01
2.334734428735192879e-01
2.334734428735192879e-01
2.399694306457776094e-01
2.399694306457776094e-01
2.518150554069545355e-01
2.518150554069545355e-01
2.518150554069545355e-01
2.369124952235384107e-01
2.369124952235384107e-01
2.564004585403133474e-01
2.564004585403133474e-01
2.564004585403133474e-01
2.319449751623997025e-01
2.319449751623997025e-01
2.422621322124570153e-01
2.422621322124570153e-01
2.422621322124570153e-01
2.392051967902178167e-01
2.392051967902178167e-01
2.392051967902178167e-01
2.392051967902178167e-01
2.392051967902178167e-01
2.537256400458540173e-01
2.537256400458540173e-01
2.479938861291555163e-01
2.479938861291555163e-01
2.479938861291555163e-01
2.434084829957967044e-01
2.434084829957967044e-01
2.556362246847535546e-01
2.556362246847535546e-01
2.556362246847535546e-01
2.334734428735192879e-01
2.334734428735192879e-01
2.495223538402751295e-01
2.495223538402751295e-01
2.495223538402751295e-01
2.361482613679785902e-01
2.361482613679785902e-01
2.411157814291172985e-01
2.411157814291172985e-01
2.411157814291172985e-01
2.506687046236148464e-01
2.506687046236148464e-01
2.262132212457011737e-01
2.262132212457011737e-01
2.262132212457011737e-01
2.407336645013374021e-01
2.407336645013374021e-01
2.235384027512418714e-01
2.235384027512418714e-01
2.235384027512418714e-01
2.258311043179212774e-01
2.258311043179212774e-01
2.235384027512418714e-01
2.235384027512418714e-01
2.235384027512418714e-01
2.216278181123423896e-01
2.216278181123423896e-01
2.311807413068398820e-01
2.311807413068398820e-01
2.311807413068398820e-01
2.296522735957202965e-01
2.296522735957202965e-01
2.258311043179212774e-01
2.258311043179212774e-01
2.258311043179212774e-01
2.441727168513565249e-01
2.441727168513565249e-01
2.430263660680168081e-01
2.430263660680168081e-01
2.434084829957967044e-01
2.434084829957967044e-01
2.434084829957967044e-01
2.411157814291172985e-01
2.411157814291172985e-01
2.181887657623232668e-01
2.181887657623232668e-01
2.181887657623232668e-01
2.212457011845624655e-01
2.212457011845624655e-01
2.235384027512418714e-01
2.235384027512418714e-01
2.235384027512418714e-01
2.285059228123805797e-01
2.285059228123805797e-01
2.285059228123805797e-01
2.285059228123805797e-01
2.285059228123805797e-01
2.277416889568207869e-01
2.277416889568207869e-01
2.208635842567825691e-01
2.208635842567825691e-01
2.208635842567825691e-01
2.361482613679785902e-01
2.361482613679785902e-01
2.197172334734428800e-01
2.197172334734428800e-01
2.197172334734428800e-01
2.063431410011463407e-01
2.063431410011463407e-01
2.074894917844860576e-01
2.074894917844860576e-01
2.074894917844860576e-01
2.082537256400458503e-01
2.082537256400458503e-01
2.307986243790599856e-01
2.307986243790599856e-01
2.307986243790599856e-01
2.235384027512418714e-01
2.235384027512418714e-01
2.181887657623232668e-01
2.181887657623232668e-01
2.181887657623232668e-01
2.051967902178066516e-01
2.051967902178066516e-01
2.051967902178066516e-01
2.051967902178066516e-01
2.051967902178066516e-01
2.155139472678639645e-01
2.155139472678639645e-01
2.071073748567061612e-01
2.071073748567061612e-01
2.071073748567061612e-01
2.105464272067252562e-01
2.105464272067252562e-01
2.067252579289262648e-01
2.067252579289262648e-01
2.067252579289262648e-01
2.136033626289644549e-01
2.136033626289644549e-01
2.009935040122277361e-01
2.009935040122277361e-01
2.009935040122277361e-01
2.051967902178066516e-01
2.051967902178066516e-01
2.097821933511654635e-01
2.097821933511654635e-01
2.097821933511654635e-01
1.899121131066106305e-01
1.899121131066106305e-01
2.006113870844478397e-01
2.006113870844478397e-01
2.006113870844478397e-01
1.899121131066106305e-01
1.899121131066106305e-01
1.776843714176538080e-01
1.776843714176538080e-01
1.776843714176538080e-01
2.036683225066870384e-01
2.036683225066870384e-01
2.017577378677875566e-01
2.017577378677875566e-01
2.017577378677875566e-01
1.880015284677111209e-01
1.880015284677111209e-01
1.750095529231945057e-01
1.750095529231945057e-01
1.750095529231945057e-01
1.918226977455101123e-01
1.918226977455101123e-01
1.715705005731753829e-01
1.715705005731753829e-01
1.715705005731753829e-01
1.971723347344287447e-01
1.971723347344287447e-01
1.692777990064959770e-01
1.692777990064959770e-01
1.692777990064959770e-01
1.730989682842949962e-01
1.730989682842949962e-01
1.860909438288116113e-01
1.860909438288116113e-01
1.860909438288116113e-01
1.834161253343523090e-01
1.834161253343523090e-01
1.696599159342759011e-01
1.696599159342759011e-01
1.696599159342759011e-01
1.685135651509361843e-01
1.685135651509361843e-01
1.704241497898356938e-01
1.704241497898356938e-01
1.704241497898356938e-01
1.601069927397783810e-01
1.601069927397783810e-01
1.627818112342376833e-01
1.627818112342376833e-01
1.627818112342376833e-01
1.490256018341612476e-01
1.490256018341612476e-01
1.750095529231945057e-01
1.750095529231945057e-01
1.750095529231945057e-01
1.474971341230416622e-01
1.474971341230416622e-01
1.486434849063813513e-01
1.486434849063813513e-01
1.486434849063813513e-01
1.478792510508215585e-01
1.478792510508215585e-01
1.536110049675200595e-01
1.536110049675200595e-01
1.536110049675200595e-01
1.666029805120366747e-01
1.666029805120366747e-01
1.421474971341230298e-01
1.421474971341230298e-01
1.421474971341230298e-01
1.379442109285441420e-01
1.379442109285441420e-01
1.562858234619793618e-01
1.562858234619793618e-01
1.562858234619793618e-01
1.601069927397783810e-01
1.601069927397783810e-01
1.578142911730989750e-01
1.578142911730989750e-01
1.578142911730989750e-01
1.478792510508215585e-01
1.478792510508215585e-01
1.555215896064195691e-01
1.555215896064195691e-01
1.555215896064195691e-01
1.314482231562858205e-01
1.314482231562858205e-01
1.574321742453190787e-01
1.574321742453190787e-01
1.574321742453190787e-01
1.432938479174627466e-01
1.432938479174627466e-01
1.352693924340848397e-01
1.352693924340848397e-01
1.352693924340848397e-01
1.444401987008024357e-01
1.444401987008024357e-01
1.486434849063813513e-01
1.486434849063813513e-01
1.486434849063813513e-01
1.268628200229270087e-01
1.268628200229270087e-01
1.371799770729843215e-01
1.371799770729843215e-01
1.371799770729843215e-01
1.497898356897210681e-01
1.497898356897210681e-01
1.345051585785250192e-01
1.345051585785250192e-01
1.345051585785250192e-01
1.280091708062667255e-01
1.280091708062667255e-01
1.173098968284295024e-01
1.173098968284295024e-01
1.173098968284295024e-01
1.203668322506687011e-01
1.203668322506687011e-01
1.410011463507833407e-01
1.410011463507833407e-01
1.410011463507833407e-01
1.146350783339702001e-01
1.146350783339702001e-01
1.276270538784868291e-01
1.276270538784868291e-01
1.276270538784868291e-01
1.375620940007642456e-01
1.375620940007642456e-01
1.352693924340848397e-01
1.352693924340848397e-01
1.352693924340848397e-01
1.345051585785250192e-01
1.345051585785250192e-01
1.234237676729079136e-01
1.234237676729079136e-01
1.234237676729079136e-01
1.341230416507451229e-01
1.341230416507451229e-01
1.184562476117692054e-01
1.184562476117692054e-01
1.257164692395873196e-01
1.257164692395873196e-01
1.257164692395873196e-01
1.280091708062667255e-01
1.280091708062667255e-01
1.276270538784868291e-01
1.276270538784868291e-01
1.276270538784868291e-01
1.184562476117692054e-01
1.184562476117692054e-01
1.287734046618265182e-01
1.287734046618265182e-01
1.287734046618265182e-01
1.325945739396255374e-01
1.325945739396255374e-01
1.089033244172716852e-01
1.089033244172716852e-01
1.089033244172716852e-01
1.134887275506304971e-01
1.134887275506304971e-01
1.203668322506687011e-01
1.203668322506687011e-01
1.203668322506687011e-01
1.249522353840275130e-01
1.249522353840275130e-01
1.058463889950324865e-01
1.058463889950324865e-01
1.058463889950324865e-01
1.230416507451280034e-01
1.230416507451280034e-01
1.020252197172334674e-01
1.020252197172334674e-01
1.020252197172334674e-01
1.035536874283530806e-01
1.035536874283530806e-01
1.264807030951471123e-01
1.264807030951471123e-01
1.264807030951471123e-01
1.111960259839510912e-01
1.111960259839510912e-01
1.253343523118074232e-01
1.253343523118074232e-01
1.253343523118074232e-01
1.157814291173099031e-01
1.157814291173099031e-01
1.257164692395873196e-01
1.257164692395873196e-01
1.257164692395873196e-01
1.024073366450133776e-01
1.024073366450133776e-01
1.123423767672907941e-01
1.123423767672907941e-01
1.123423767672907941e-01
1.127244936950706905e-01
1.127244936950706905e-01
1.260985861673672159e-01
1.260985861673672159e-01
1.260985861673672159e-01
1.054642720672525763e-01
1.054642720672525763e-01
1.222774168895682106e-01
1.222774168895682106e-01
1.222774168895682106e-01
1.180741306839892951e-01
1.180741306839892951e-01
1.039358043561329770e-01
1.039358043561329770e-01
1.039358043561329770e-01
1.184562476117692054e-01
1.184562476117692054e-01
1.165456629728696958e-01
1.165456629728696958e-01
1.165456629728696958e-01
9.743981658387466938e-02
9.743981658387466938e-02
9.361864730607566409e-02
9.361864730607566409e-02
9.361864730607566409e-02
1.096675582728314918e-01
1.096675582728314918e-01
1.081390905617118786e-01
1.081390905617118786e-01
1.081390905617118786e-01
1.092854413450515816e-01
1.092854413450515816e-01
9.820405043943446211e-02
9.820405043943446211e-02
9.820405043943446211e-02
9.667558272831486277e-02
9.667558272831486277e-02
9.896828429499426871e-02
9.896828429499426871e-02
9.896828429499426871e-02
1.211310661062285077e-01
1.211310661062285077e-01
9.705769965609475913e-02
9.705769965609475913e-02
9.705769965609475913e-02
1.173098968284295024e-01
1.173098968284295024e-01
1.188383645395491017e-01
1.188383645395491017e-01
1.188383645395491017e-01
1.119602598395108839e-01
1.119602598395108839e-01
1.176920137562093988e-01
1.176920137562093988e-01
1.176920137562093988e-01
1.031715705005731704e-01
1.031715705005731704e-01
1.111960259839510912e-01
1.111960259839510912e-01
1.111960259839510912e-01
9.743981658387466938e-02
9.743981658387466938e-02
1.004967520061138680e-01
1.004967520061138680e-01
1.004967520061138680e-01
9.361864730607566409e-02
9.361864730607566409e-02
1.153993121895299928e-01
1.153993121895299928e-01
1.153993121895299928e-01
9.476499808941536707e-02
9.476499808941536707e-02
1.016431027894535710e-01
1.016431027894535710e-01
1.016431027894535710e-01
1.115781429117309875e-01
1.115781429117309875e-01
9.247229652273596112e-02
9.247229652273596112e-02
9.247229652273596112e-02
1.081390905617118786e-01
1.081390905617118786e-01
1.169277799006495921e-01
1.169277799006495921e-01
1.169277799006495921e-01
1.115781429117309875e-01
1.115781429117309875e-01
1.039358043561329770e-01
1.039358043561329770e-01
1.039358043561329770e-01
9.896828429499426871e-02
9.896828429499426871e-02
1.176920137562093988e-01
1.176920137562093988e-01
1.176920137562093988e-01
1.142529614061902898e-01
1.142529614061902898e-01
1.134887275506304971e-01
1.134887275506304971e-01
1.134887275506304971e-01
9.209017959495605088e-02
9.209017959495605088e-02
9.094382881161634791e-02
9.094382881161634791e-02
9.094382881161634791e-02
1.100496752006113882e-01
1.100496752006113882e-01
1.123423767672907941e-01
1.123423767672907941e-01
1.123423767672907941e-01
9.285441345051585749e-02
9.285441345051585749e-02
9.476499808941536707e-02
9.476499808941536707e-02
9.476499808941536707e-02
9.782193351165456574e-02
9.782193351165456574e-02
1.142529614061902898e-01
1.142529614061902898e-01
1.142529614061902898e-01
9.017959495605655518e-02
9.017959495605655518e-02
9.935040122277416508e-02
9.935040122277416508e-02
9.935040122277416508e-02
1.142529614061902898e-01
1.142529614061902898e-01
1.004967520061138680e-01
1.004967520061138680e-01
1.004967520061138680e-01
9.476499808941536707e-02
9.476499808941536707e-02
1.115781429117309875e-01
1.115781429117309875e-01
1.115781429117309875e-01
1.043179212839128733e-01
1.043179212839128733e-01
9.629346580053496640e-02
9.629346580053496640e-02
9.629346580053496640e-02
1.169277799006495921e-01
1.169277799006495921e-01
8.941536110049674857e-02
8.941536110049674857e-02
8.941536110049674857e-02
1.131066106228505869e-01
1.131066106228505869e-01
1.001146350783339717e-01
1.001146350783339717e-01
9.514711501719526343e-02
9.514711501719526343e-02
9.514711501719526343e-02
1.188383645395491017e-01
1.188383645395491017e-01
1.050821551394726799e-01
1.050821551394726799e-01
1.050821551394726799e-01
1.096675582728314918e-01
1.096675582728314918e-01
9.514711501719526343e-02
9.514711501719526343e-02
9.514711501719526343e-02
1.169277799006495921e-01
1.169277799006495921e-01
1.180741306839892951e-01
1.180741306839892951e-01
1.180741306839892951e-01
1.054642720672525763e-01
1.054642720672525763e-01
1.004967520061138680e-01
1.004967520061138680e-01
1.004967520061138680e-01
9.209017959495605088e-02
9.209017959495605088e-02
9.935040122277416508e-02
9.935040122277416508e-02
9.935040122277416508e-02
1.115781429117309875e-01
1.115781429117309875e-01
1.215131830340084040e-01
1.215131830340084040e-01
1.215131830340084040e-01
1.142529614061902898e-01
1.142529614061902898e-01
1.215131830340084040e-01
1.215131830340084040e-01
1.215131830340084040e-01
1.092854413450515816e-01
1.092854413450515816e-01
1.031715705005731704e-01
1.031715705005731704e-01
1.031715705005731704e-01
9.514711501719526343e-02
9.514711501719526343e-02
1.089033244172716852e-01
1.089033244172716852e-01
1.089033244172716852e-01
1.153993121895299928e-01
1.153993121895299928e-01
1.176920137562093988e-01
1.176920137562093988e-01
1.176920137562093988e-01
1.161635460450897994e-01
1.161635460450897994e-01
9.438288116163545682e-02
9.438288116163545682e-02
9.438288116163545682e-02
1.169277799006495921e-01
1.169277799006495921e-01
9.705769965609475913e-02
9.705769965609475913e-02
9.705769965609475913e-02
9.552923194497515980e-02
9.552923194497515980e-02
1.111960259839510912e-01
1.111960259839510912e-01
1.111960259839510912e-01
1.008788689338937783e-01
1.008788689338937783e-01
1.081390905617118786e-01
1.081390905617118786e-01
1.081390905617118786e-01
9.285441345051585749e-02
9.285441345051585749e-02
1.054642720672525763e-01
1.054642720672525763e-01
1.054642720672525763e-01
1.142529614061902898e-01
1.142529614061902898e-01
9.285441345051585749e-02
9.285441345051585749e-02
9.285441345051585749e-02
9.629346580053496640e-02
9.629346580053496640e-02
1.142529614061902898e-01
1.142529614061902898e-01
1.142529614061902898e-01
1.054642720672525763e-01
1.054642720672525763e-01
1.161635460450897994e-01
1.161635460450897994e-01
1.161635460450897994e-01
1.188383645395491017e-01
1.188383645395491017e-01
9.820405043943446211e-02
9.820405043943446211e-02
9.820405043943446211e-02
1.196025983951089083e-01
1.196025983951089083e-01
1.238058846006878100e-01
1.238058846006878100e-01
1.238058846006878100e-01
1.176920137562093988e-01
1.176920137562093988e-01
1.241880015284677063e-01
1.241880015284677063e-01
1.241880015284677063e-01
1.402369124952235480e-01
1.402369124952235480e-01
1.425296140619029539e-01
1.425296140619029539e-01
1.425296140619029539e-01
1.379442109285441420e-01
1.379442109285441420e-01
1.333588077951853301e-01
1.333588077951853301e-01
1.333588077951853301e-01
1.398547955674436516e-01
1.398547955674436516e-01
1.620175773786778628e-01
1.620175773786778628e-01
1.620175773786778628e-01
1.627818112342376833e-01
1.627818112342376833e-01
1.807413068398930067e-01
1.807413068398930067e-01
1.807413068398930067e-01
1.773022544898739117e-01
1.773022544898739117e-01
2.036683225066870384e-01
2.036683225066870384e-01
2.036683225066870384e-01
2.036683225066870384e-01
2.036683225066870384e-01
2.082537256400458503e-01
2.082537256400458503e-01
2.082537256400458503e-01
2.231562858234619751e-01
2.231562858234619751e-01
2.357661444401986939e-01
2.357661444401986939e-01
2.357661444401986939e-01
2.713030187237294721e-01
2.713030187237294721e-01
2.865876958349254933e-01
2.865876958349254933e-01
2.865876958349254933e-01
2.720672525792892649e-01
2.720672525792892649e-01
3.083683607183798081e-01
3.083683607183798081e-01
3.083683607183798081e-01
3.179212839128773282e-01
3.179212839128773282e-01
3.202139854795567619e-01
3.202139854795567619e-01
3.202139854795567619e-01
3.305311425296140748e-01
3.305311425296140748e-01
3.568972105464272015e-01
3.568972105464272015e-01
3.568972105464272015e-01
3.580435613297668906e-01
3.580435613297668906e-01
3.763851738632021382e-01
3.763851738632021382e-01
3.763851738632021382e-01
3.912877340466182630e-01
3.912877340466182630e-01
4.008406572411157831e-01
4.008406572411157831e-01
4.008406572411157831e-01
3.966373710355368676e-01
3.966373710355368676e-01
4.188001528467711343e-01
4.188001528467711343e-01
4.188001528467711343e-01
4.241497898356897389e-01
4.241497898356897389e-01
4.512800917080626584e-01
4.512800917080626584e-01
4.512800917080626584e-01
4.375238823079862227e-01
4.375238823079862227e-01
4.673290026748184722e-01
4.673290026748184722e-01
4.673290026748184722e-01
4.833779136415743416e-01
4.833779136415743416e-01
4.837600305693542380e-01
4.837600305693542380e-01
4.837600305693542380e-01
4.978983568972105700e-01
4.978983568972105700e-01
4.917844860527321171e-01
4.917844860527321171e-01
4.917844860527321171e-01
5.009552923194497964e-01
5.009552923194497964e-01
5.066870462361482419e-01
5.066870462361482419e-01
5.066870462361482419e-01
5.219717233473443185e-01
5.219717233473443185e-01
5.231180741306840076e-01
5.231180741306840076e-01
5.422239205196790479e-01
5.422239205196790479e-01
5.422239205196790479e-01
5.311425296140619423e-01
5.311425296140619423e-01
5.280855941918226604e-01
5.280855941918226604e-01
5.280855941918226604e-01
5.536874283530760499e-01
5.536874283530760499e-01
5.567443637753152208e-01
5.567443637753152208e-01
5.567443637753152208e-01
5.590370653419945990e-01
5.590370653419945990e-01
5.468093236530378043e-01
5.468093236530378043e-01
5.468093236530378043e-01
5.460450897974780116e-01
5.460450897974780116e-01
5.689721054642720155e-01
5.689721054642720155e-01
5.689721054642720155e-01
5.533053114252961535e-01
5.533053114252961535e-01
5.628582346197936737e-01
5.628582346197936737e-01
5.628582346197936737e-01
5.529231944975162572e-01
5.529231944975162572e-01
5.529231944975162572e-01
5.529231944975162572e-01
5.529231944975162572e-01
5.647688192586931555e-01
5.647688192586931555e-01
5.624761176920137773e-01
5.624761176920137773e-01
5.624761176920137773e-01
5.716469239587314011e-01
5.716469239587314011e-01
5.766144440198700538e-01
5.766144440198700538e-01
5.766144440198700538e-01
5.693542223920520229e-01
5.693542223920520229e-01
5.724111578142911938e-01
5.724111578142911938e-01
5.724111578142911938e-01
5.662972869698127409e-01
5.662972869698127409e-01
5.674436377531524300e-01
5.674436377531524300e-01
5.674436377531524300e-01
5.510126098586167753e-01
5.510126098586167753e-01
5.678257546809323264e-01
5.678257546809323264e-01
5.678257546809323264e-01
5.513947267863966717e-01
5.513947267863966717e-01
5.548337791364157390e-01
5.548337791364157390e-01
5.548337791364157390e-01
5.483377913641573898e-01
5.483377913641573898e-01
5.655330531142529482e-01
5.655330531142529482e-01
5.655330531142529482e-01
5.506304929308368790e-01
5.506304929308368790e-01
5.697363393198319192e-01
5.697363393198319192e-01
5.697363393198319192e-01
5.418418035918991515e-01
5.418418035918991515e-01
5.491020252197171825e-01
5.491020252197171825e-01
5.491020252197171825e-01
5.617118838364539846e-01
5.617118838364539846e-01
5.399312189529996697e-01
5.399312189529996697e-01
5.399312189529996697e-01
5.307604126862820459e-01
5.307604126862820459e-01
5.510126098586167753e-01
5.510126098586167753e-01
5.510126098586167753e-01
5.292319449751623495e-01
5.292319449751623495e-01
5.334352311807413205e-01
5.334352311807413205e-01
5.334352311807413205e-01
5.410775697363393588e-01
5.410775697363393588e-01
5.170042032862055548e-01
5.170042032862055548e-01
5.170042032862055548e-01
5.303782957585021496e-01
5.303782957585021496e-01
5.089797478028276201e-01
5.089797478028276201e-01
5.089797478028276201e-01
5.311425296140619423e-01
5.311425296140619423e-01
5.303782957585021496e-01
5.303782957585021496e-01
5.303782957585021496e-01
5.265571264807030749e-01
5.265571264807030749e-01
5.085976308750477237e-01
5.085976308750477237e-01
5.085976308750477237e-01
5.082155139472678274e-01
5.082155139472678274e-01
5.124188001528467984e-01
5.124188001528467984e-01
5.124188001528467984e-01
5.043943446694688637e-01
5.043943446694688637e-01
4.944593045471914472e-01
4.944593045471914472e-01
4.944593045471914472e-01
4.956056553305311363e-01
4.956056553305311363e-01
4.875811998471532016e-01
4.875811998471532016e-01
4.875811998471532016e-01
4.971341230416507218e-01
4.971341230416507218e-01
4.929308368360718617e-01
4.929308368360718617e-01
4.929308368360718617e-01
4.978983568972105700e-01
4.978983568972105700e-01
4.864348490638135125e-01
4.864348490638135125e-01
4.864348490638135125e-01
4.925487199082919099e-01
4.925487199082919099e-01
4.677111196025983686e-01
4.677111196025983686e-01
4.677111196025983686e-01
4.650363011081390940e-01
4.650363011081390940e-01
4.585403133358808003e-01
4.585403133358808003e-01
4.585403133358808003e-01
4.696217042414979059e-01
4.696217042414979059e-01
4.562476117692013666e-01
4.562476117692013666e-01
4.562476117692013666e-01
4.654184180359189904e-01
4.654184180359189904e-01
4.604508979747802822e-01
4.604508979747802822e-01
4.604508979747802822e-01
4.566297286969812630e-01
4.566297286969812630e-01
4.401987008024455528e-01
4.401987008024455528e-01
4.401987008024455528e-01
4.356132976690867409e-01
4.356132976690867409e-01
4.394344669468857600e-01
4.394344669468857600e-01
4.394344669468857600e-01
4.130683989300725778e-01
4.130683989300725778e-01
4.042797095911349059e-01
4.042797095911349059e-01
4.042797095911349059e-01
4.054260603744745950e-01
4.054260603744745950e-01
4.138326327856324260e-01
4.138326327856324260e-01
4.138326327856324260e-01
3.889950324799388848e-01
3.889950324799388848e-01
4.019870080244554722e-01
4.019870080244554722e-01
4.019870080244554722e-01
3.737103553687428081e-01
3.737103553687428081e-01
3.912877340466182630e-01
3.912877340466182630e-01
3.912877340466182630e-01
3.675964845242644108e-01
3.675964845242644108e-01
3.668322506687046181e-01
3.668322506687046181e-01
3.668322506687046181e-01
3.614826136797860134e-01
3.614826136797860134e-01
3.412304165074512841e-01
3.412304165074512841e-01
3.412304165074512841e-01
3.366450133740924722e-01
3.366450133740924722e-01
3.416125334352311804e-01
3.416125334352311804e-01
3.549866259075277197e-01
3.549866259075277197e-01
3.549866259075277197e-01
3.202139854795567619e-01
3.202139854795567619e-01
3.320596102407336603e-01
3.320596102407336603e-01
3.320596102407336603e-01
3.316774933129537639e-01
3.316774933129537639e-01
3.064577760794803263e-01
3.064577760794803263e-01
3.064577760794803263e-01
3.259457393962552629e-01
3.259457393962552629e-01
3.194497516239969692e-01
3.194497516239969692e-01
3.194497516239969692e-01
3.194497516239969692e-01
3.194497516239969692e-01
2.957585021016431170e-01
2.957585021016431170e-01
2.957585021016431170e-01
2.900267481849446161e-01
2.900267481849446161e-01
3.079862437905999117e-01
3.079862437905999117e-01
3.079862437905999117e-01
2.831486434849063705e-01
2.831486434849063705e-01
2.942300343905234761e-01
2.942300343905234761e-01
2.942300343905234761e-01
2.850592281238059078e-01
2.850592281238059078e-01
2.927015666794038906e-01
2.927015666794038906e-01
2.927015666794038906e-01
2.774168895682078695e-01
2.774168895682078695e-01
2.915552158960642015e-01
2.915552158960642015e-01
2.915552158960642015e-01
2.670997325181505566e-01
2.670997325181505566e-01
2.617500955292319520e-01
2.617500955292319520e-01
2.617500955292319520e-01
2.701566679403897830e-01
2.701566679403897830e-01
2.682460833014902457e-01
2.682460833014902457e-01
2.682460833014902457e-01
2.583110431792128292e-01
2.583110431792128292e-01
2.812380588460068886e-01
2.812380588460068886e-01
2.812380588460068886e-01
2.693924340848299348e-01
2.693924340848299348e-01
2.682460833014902457e-01
2.682460833014902457e-01
2.682460833014902457e-01
2.606037447458922629e-01
2.606037447458922629e-01
2.693924340848299348e-01
2.693924340848299348e-01
2.693924340848299348e-01
2.548719908291937064e-01
2.548719908291937064e-01
2.495223538402751295e-01
2.495223538402751295e-01
2.495223538402751295e-01
2.537256400458540173e-01
2.537256400458540173e-01
2.586931601069927256e-01
2.586931601069927256e-01
2.586931601069927256e-01
2.709209017959495758e-01
2.709209017959495758e-01
2.682460833014902457e-01
2.682460833014902457e-01
2.682460833014902457e-01
2.529614061902942246e-01
2.529614061902942246e-01
2.690103171570500384e-01
2.690103171570500384e-01
2.690103171570500384e-01
2.434084829957967044e-01
2.434084829957967044e-01
2.674818494459304530e-01
2.674818494459304530e-01
2.674818494459304530e-01
2.617500955292319520e-01
2.617500955292319520e-01
2.670997325181505566e-01
2.670997325181505566e-01
2.670997325181505566e-01
2.598395108903324147e-01
2.598395108903324147e-01
2.464654184180359309e-01
2.464654184180359309e-01
2.464654184180359309e-01
2.437905999235766008e-01
2.437905999235766008e-01
2.659533817348108675e-01
2.659533817348108675e-01
2.659533817348108675e-01
2.514329384791746391e-01
2.514329384791746391e-01
2.655712648070309712e-01
2.655712648070309712e-01
2.655712648070309712e-01
2.437905999235766008e-01
2.437905999235766008e-01
2.445548337791364213e-01
2.445548337791364213e-01
2.445548337791364213e-01
2.483760030569354127e-01
2.483760030569354127e-01
2.594573939625525183e-01
2.594573939625525183e-01
2.594573939625525183e-01
2.628964463125716411e-01
2.628964463125716411e-01
2.537256400458540173e-01
2.537256400458540173e-01
2.537256400458540173e-01
2.422621322124570153e-01
2.422621322124570153e-01
2.434084829957967044e-01
2.434084829957967044e-01
2.434084829957967044e-01
2.411157814291172985e-01
2.411157814291172985e-01
2.552541077569736583e-01
2.552541077569736583e-01
2.552541077569736583e-01
2.369124952235384107e-01
2.369124952235384107e-01
2.346197936568590048e-01
2.346197936568590048e-01
2.346197936568590048e-01
2.564004585403133474e-01
2.564004585403133474e-01
2.518150554069545355e-01
2.518150554069545355e-01
2.518150554069545355e-01
2.307986243790599856e-01
2.307986243790599856e-01
2.384409629346579962e-01
2.384409629346579962e-01
2.384409629346579962e-01
2.319449751623997025e-01
2.319449751623997025e-01
2.277416889568207869e-01
2.277416889568207869e-01
2.277416889568207869e-01
2.376767290790982035e-01
2.376767290790982035e-01
2.304165074512800893e-01
2.304165074512800893e-01
2.304165074512800893e-01
2.258311043179212774e-01
2.258311043179212774e-01
2.315628582346198061e-01
2.315628582346198061e-01
2.315628582346198061e-01
2.311807413068398820e-01
2.311807413068398820e-01
2.254489873901413810e-01
2.254489873901413810e-01
2.254489873901413810e-01
2.262132212457011737e-01
2.262132212457011737e-01
2.178066488345433704e-01
2.178066488345433704e-01
2.178066488345433704e-01
2.369124952235384107e-01
2.369124952235384107e-01
2.139854795567443513e-01
2.139854795567443513e-01
2.139854795567443513e-01
2.143675964845242754e-01
2.143675964845242754e-01
2.281238058846006833e-01
2.281238058846006833e-01
2.281238058846006833e-01
2.254489873901413810e-01
2.254489873901413810e-01
2.113106610622850490e-01
2.113106610622850490e-01
2.113106610622850490e-01
2.097821933511654635e-01
2.097821933511654635e-01
2.040504394344669348e-01
2.040504394344669348e-01
2.040504394344669348e-01
2.220099350401222860e-01
2.220099350401222860e-01
2.216278181123423896e-01
2.216278181123423896e-01
2.231562858234619751e-01
2.231562858234619751e-01
2.231562858234619751e-01
1.979365685899885374e-01
1.979365685899885374e-01
1.998471532288880470e-01
1.998471532288880470e-01
1.998471532288880470e-01
2.116927779900649731e-01
2.116927779900649731e-01
2.055789071455865480e-01
2.055789071455865480e-01
2.055789071455865480e-01
1.895299961788307341e-01
1.895299961788307341e-01
1.902942300343905269e-01
1.902942300343905269e-01
1.902942300343905269e-01
1.849445930454719222e-01
1.849445930454719222e-01
2.032862055789071420e-01
2.032862055789071420e-01
2.032862055789071420e-01
1.964081008788689242e-01
1.964081008788689242e-01
1.956438670233091315e-01
1.956438670233091315e-01
1.956438670233091315e-01
1.895299961788307341e-01
1.895299961788307341e-01
1.933511654566297255e-01
1.933511654566297255e-01
1.933511654566297255e-01
1.765380206343140912e-01
1.765380206343140912e-01
1.753916698509744021e-01
1.753916698509744021e-01
1.753916698509744021e-01
1.730989682842949962e-01
1.730989682842949962e-01
1.704241497898356938e-01
1.704241497898356938e-01
1.704241497898356938e-01
1.822697745510126199e-01
1.822697745510126199e-01
1.822697745510126199e-01
1.822697745510126199e-01
1.822697745510126199e-01
1.795949560565533176e-01
1.795949560565533176e-01
1.669850974398165711e-01
1.669850974398165711e-01
1.669850974398165711e-01
1.757737867787542985e-01
1.757737867787542985e-01
1.688956820787160806e-01
1.688956820787160806e-01
1.688956820787160806e-01
1.623996943064577869e-01
1.623996943064577869e-01
1.723347344287352034e-01
1.723347344287352034e-01
1.723347344287352034e-01
1.666029805120366747e-01
1.666029805120366747e-01
1.601069927397783810e-01
1.601069927397783810e-01
1.601069927397783810e-01
1.589606419564386641e-01
1.589606419564386641e-01
1.524646541841803704e-01
1.524646541841803704e-01
1.524646541841803704e-01
1.524646541841803704e-01
1.524646541841803704e-01
1.482613679786014549e-01
1.482613679786014549e-01
1.482613679786014549e-01
1.700420328620557975e-01
1.700420328620557975e-01
1.669850974398165711e-01
1.669850974398165711e-01
1.669850974398165711e-01
1.685135651509361843e-01
1.685135651509361843e-01
1.452044325563622562e-01
1.452044325563622562e-01
1.452044325563622562e-01
1.627818112342376833e-01
1.627818112342376833e-01
1.570500573175391545e-01
1.570500573175391545e-01
1.570500573175391545e-01
1.623996943064577869e-01
1.623996943064577869e-01
1.383263278563240384e-01
1.383263278563240384e-01
1.383263278563240384e-01
1.612533435231180701e-01
1.612533435231180701e-01
1.455865494841421526e-01
1.455865494841421526e-01
1.455865494841421526e-01
1.608712265953381737e-01
1.608712265953381737e-01
1.425296140619029539e-01
1.425296140619029539e-01
1.425296140619029539e-01
1.547573557508597764e-01
1.547573557508597764e-01
1.291555215896064146e-01
1.291555215896064146e-01
1.291555215896064146e-01
1.371799770729843215e-01
1.371799770729843215e-01
1.509361864730607572e-01
1.509361864730607572e-01
1.509361864730607572e-01
1.421474971341230298e-01
1.421474971341230298e-01
1.517004203286205499e-01
1.517004203286205499e-01
1.517004203286205499e-01
1.509361864730607572e-01
1.509361864730607572e-01
1.291555215896064146e-01
1.291555215896064146e-01
1.291555215896064146e-01
1.283912877340466219e-01
1.283912877340466219e-01
1.390905617118838311e-01
1.390905617118838311e-01
1.390905617118838311e-01
1.398547955674436516e-01
1.398547955674436516e-01
1.371799770729843215e-01
1.371799770729843215e-01
1.371799770729843215e-01
1.283912877340466219e-01
1.283912877340466219e-01
1.260985861673672159e-01
1.260985861673672159e-01
1.260985861673672159e-01
1.432938479174627466e-01
1.432938479174627466e-01
1.226595338173481070e-01
1.226595338173481070e-01
1.226595338173481070e-01
1.226595338173481070e-01
1.226595338173481070e-01
1.299197554451662073e-01
1.299197554451662073e-01
1.299197554451662073e-01
1.238058846006878100e-01
1.238058846006878100e-01
1.253343523118074232e-01
1.253343523118074232e-01
1.253343523118074232e-01
1.234237676729079136e-01
1.234237676729079136e-01
1.184562476117692054e-01
1.184562476117692054e-01
1.184562476117692054e-01
1.402369124952235480e-01
1.402369124952235480e-01
1.260985861673672159e-01
1.260985861673672159e-01
1.260985861673672159e-01
1.161635460450897994e-01
1.161635460450897994e-01
1.222774168895682106e-01
1.222774168895682106e-01
1.222774168895682106e-01
1.226595338173481070e-01
1.226595338173481070e-01
1.176920137562093988e-01
1.176920137562093988e-01
1.176920137562093988e-01
1.272449369507069050e-01
1.272449369507069050e-01
1.211310661062285077e-01
1.211310661062285077e-01
1.211310661062285077e-01
1.371799770729843215e-01
1.371799770729843215e-01
1.260985861673672159e-01
1.260985861673672159e-01
1.260985861673672159e-01
1.131066106228505869e-01
1.131066106228505869e-01
1.153993121895299928e-01
1.153993121895299928e-01
1.153993121895299928e-01
1.180741306839892951e-01
1.180741306839892951e-01
1.104317921283912846e-01
1.104317921283912846e-01
1.104317921283912846e-01
1.180741306839892951e-01
1.180741306839892951e-01
1.276270538784868291e-01
1.276270538784868291e-01
1.276270538784868291e-01
1.345051585785250192e-01
1.345051585785250192e-01
1.322124570118456133e-01
1.322124570118456133e-01
1.299197554451662073e-01
1.299197554451662073e-01
1.299197554451662073e-01
1.142529614061902898e-01
1.142529614061902898e-01
1.207489491784486113e-01
1.207489491784486113e-01
1.207489491784486113e-01
1.108139090561711948e-01
1.108139090561711948e-01
1.192204814673289981e-01
1.192204814673289981e-01
1.192204814673289981e-01
1.264807030951471123e-01
1.264807030951471123e-01
1.345051585785250192e-01
1.345051585785250192e-01
1.345051585785250192e-01
1.253343523118074232e-01
1.253343523118074232e-01
1.287734046618265182e-01
1.287734046618265182e-01
1.287734046618265182e-01
1.184562476117692054e-01
1.184562476117692054e-01
1.276270538784868291e-01
1.276270538784868291e-01
1.276270538784868291e-01
1.111960259839510912e-01
1.111960259839510912e-01
1.272449369507069050e-01
1.272449369507069050e-01
1.272449369507069050e-01
1.188383645395491017e-01
1.188383645395491017e-01
1.089033244172716852e-01
1.089033244172716852e-01
1.089033244172716852e-01
1.299197554451662073e-01
1.299197554451662073e-01
1.127244936950706905e-01
1.127244936950706905e-01
1.127244936950706905e-01
1.150171952617500964e-01
1.150171952617500964e-01
1.104317921283912846e-01
1.104317921283912846e-01
1.104317921283912846e-01
1.333588077951853301e-01
1.333588077951853301e-01
1.253343523118074232e-01
1.253343523118074232e-01
1.253343523118074232e-01
1.280091708062667255e-01
1.280091708062667255e-01
1.375620940007642456e-01
1.375620940007642456e-01
1.375620940007642456e-01
