3.133358807795185164e-01
3.148643484906381573e-01
3.148643484906381573e-01
3.217424531906763474e-01
3.217424531906763474e-01
3.217424531906763474e-01
2.873519296904852860e-01
2.873519296904852860e-01
2.854413450515858042e-01
2.854413450515858042e-01
2.854413450515858042e-01
3.076041268628200154e-01
3.076041268628200154e-01
3.026366068016813071e-01
3.026366068016813071e-01
3.026366068016813071e-01
2.693924340848299348e-01
2.693924340848299348e-01
2.946121513183034279e-01
2.946121513183034279e-01
2.946121513183034279e-01
2.892625143293847678e-01
2.892625143293847678e-01
2.548719908291937064e-01
2.548719908291937064e-01
2.548719908291937064e-01
2.743599541459686431e-01
2.743599541459686431e-01
2.521971723347344319e-01
2.521971723347344319e-01
2.521971723347344319e-01
2.659533817348108675e-01
2.659533817348108675e-01
2.632785632403515375e-01
2.632785632403515375e-01
2.632785632403515375e-01
2.556362246847535546e-01
2.556362246847535546e-01
2.571646923958731401e-01
2.571646923958731401e-01
2.571646923958731401e-01
2.353840275124187975e-01
2.353840275124187975e-01
2.476117692013756200e-01
2.476117692013756200e-01
2.476117692013756200e-01
2.525792892625143282e-01
2.525792892625143282e-01
2.384409629346579962e-01
2.384409629346579962e-01
2.384409629346579962e-01
2.437905999235766008e-01
2.437905999235766008e-01
2.395873137179977130e-01
2.395873137179977130e-01
2.395873137179977130e-01
2.407336645013374021e-01
2.407336645013374021e-01
2.128391287734046622e-01
2.128391287734046622e-01
2.128391287734046622e-01
2.143675964845242754e-01
2.143675964845242754e-01
2.300343905235001929e-01
2.300343905235001929e-01
2.300343905235001929e-01
2.002292701566679434e-01
2.002292701566679434e-01
1.971723347344287447e-01
1.971723347344287447e-01
1.971723347344287447e-01
2.327092090179594952e-01
2.327092090179594952e-01
2.109285441345051526e-01
2.109285441345051526e-01
2.109285441345051526e-01
2.277416889568207869e-01
2.277416889568207869e-01
1.922048146732900364e-01
1.922048146732900364e-01
1.922048146732900364e-01
2.178066488345433704e-01
2.178066488345433704e-01
2.178066488345433704e-01
2.178066488345433704e-01
2.178066488345433704e-01
2.109285441345051526e-01
2.109285441345051526e-01
1.925869316010699328e-01
1.925869316010699328e-01
1.925869316010699328e-01
1.834161253343523090e-01
1.834161253343523090e-01
2.166602980512036813e-01
2.166602980512036813e-01
2.166602980512036813e-01
1.799770729843332140e-01
1.799770729843332140e-01
1.998471532288880470e-01
1.998471532288880470e-01
1.998471532288880470e-01
1.769201375620939876e-01
1.769201375620939876e-01
1.769201375620939876e-01
1.769201375620939876e-01
1.769201375620939876e-01
1.746274359954146094e-01
1.746274359954146094e-01
2.067252579289262648e-01
2.067252579289262648e-01
2.067252579289262648e-01
1.727168513565150998e-01
1.727168513565150998e-01
1.853267099732518186e-01
1.853267099732518186e-01
1.853267099732518186e-01
2.009935040122277361e-01
2.009935040122277361e-01
1.666029805120366747e-01
1.666029805120366747e-01
1.933511654566297255e-01
1.933511654566297255e-01
1.933511654566297255e-01
1.677493312953763915e-01
1.677493312953763915e-01
1.880015284677111209e-01
1.880015284677111209e-01
1.880015284677111209e-01
1.807413068398930067e-01
1.807413068398930067e-01
1.669850974398165711e-01
1.669850974398165711e-01
1.669850974398165711e-01
1.650745128009170892e-01
1.650745128009170892e-01
1.792128391287733935e-01
1.792128391287733935e-01
1.792128391287733935e-01
1.696599159342759011e-01
1.696599159342759011e-01
1.730989682842949962e-01
1.730989682842949962e-01
1.730989682842949962e-01
1.616354604508979664e-01
1.616354604508979664e-01
1.857088269010317150e-01
1.857088269010317150e-01
1.857088269010317150e-01
1.585785250286587678e-01
1.585785250286587678e-01
1.711883836453954866e-01
1.711883836453954866e-01
1.711883836453954866e-01
1.769201375620939876e-01
1.769201375620939876e-01
1.757737867787542985e-01
1.757737867787542985e-01
1.757737867787542985e-01
1.803591899121131104e-01
1.803591899121131104e-01
1.738632021398547889e-01
1.738632021398547889e-01
1.738632021398547889e-01
1.845624761176920259e-01
1.845624761176920259e-01
1.845624761176920259e-01
1.845624761176920259e-01
1.845624761176920259e-01
1.688956820787160806e-01
1.688956820787160806e-01
1.708062667176155902e-01
1.708062667176155902e-01
1.708062667176155902e-01
1.471150171952617380e-01
1.471150171952617380e-01
1.750095529231945057e-01
1.750095529231945057e-01
1.750095529231945057e-01
1.658387466564768820e-01
1.658387466564768820e-01
1.440580817730225394e-01
1.440580817730225394e-01
1.440580817730225394e-01
1.738632021398547889e-01
1.738632021398547889e-01
1.463507833397019453e-01
1.463507833397019453e-01
1.463507833397019453e-01
1.700420328620557975e-01
1.700420328620557975e-01
1.532288880397401631e-01
1.532288880397401631e-01
1.532288880397401631e-01
1.654566297286969856e-01
1.654566297286969856e-01
1.639281620175773724e-01
1.639281620175773724e-01
1.639281620175773724e-01
1.509361864730607572e-01
1.509361864730607572e-01
1.390905617118838311e-01
1.390905617118838311e-01
1.390905617118838311e-01
1.505540695452808608e-01
1.505540695452808608e-01
1.303018723729461315e-01
1.303018723729461315e-01
1.303018723729461315e-01
1.459686664119220489e-01
1.459686664119220489e-01
1.547573557508597764e-01
1.547573557508597764e-01
1.547573557508597764e-01
1.260985861673672159e-01
1.260985861673672159e-01
1.329766908674054338e-01
1.329766908674054338e-01
1.329766908674054338e-01
1.257164692395873196e-01
1.257164692395873196e-01
1.547573557508597764e-01
1.547573557508597764e-01
1.547573557508597764e-01
1.585785250286587678e-01
1.585785250286587678e-01
1.333588077951853301e-01
1.333588077951853301e-01
1.333588077951853301e-01
1.574321742453190787e-01
1.574321742453190787e-01
1.310661062285059242e-01
1.310661062285059242e-01
1.310661062285059242e-01
1.222774168895682106e-01
1.222774168895682106e-01
1.497898356897210681e-01
1.497898356897210681e-01
1.497898356897210681e-01
1.352693924340848397e-01
1.352693924340848397e-01
1.314482231562858205e-01
1.314482231562858205e-01
1.314482231562858205e-01
1.402369124952235480e-01
1.402369124952235480e-01
1.513183034008406536e-01
1.513183034008406536e-01
1.513183034008406536e-01
1.482613679786014549e-01
1.482613679786014549e-01
1.482613679786014549e-01
1.482613679786014549e-01
1.482613679786014549e-01
1.413832632785632371e-01
1.413832632785632371e-01
1.528467711119602668e-01
1.528467711119602668e-01
1.528467711119602668e-01
1.264807030951471123e-01
1.264807030951471123e-01
1.513183034008406536e-01
1.513183034008406536e-01
1.513183034008406536e-01
1.482613679786014549e-01
1.482613679786014549e-01
1.478792510508215585e-01
1.478792510508215585e-01
1.478792510508215585e-01
1.138708444784103935e-01
1.138708444784103935e-01
1.452044325563622562e-01
1.452044325563622562e-01
1.452044325563622562e-01
1.429117309896828503e-01
1.429117309896828503e-01
1.387084447841039347e-01
1.387084447841039347e-01
1.387084447841039347e-01
1.425296140619029539e-01
1.425296140619029539e-01
1.280091708062667255e-01
1.280091708062667255e-01
1.280091708062667255e-01
1.241880015284677063e-01
1.241880015284677063e-01
1.333588077951853301e-01
1.333588077951853301e-01
1.333588077951853301e-01
1.413832632785632371e-01
1.413832632785632371e-01
1.119602598395108839e-01
1.119602598395108839e-01
1.119602598395108839e-01
1.253343523118074232e-01
1.253343523118074232e-01
1.127244936950706905e-01
1.127244936950706905e-01
1.127244936950706905e-01
1.474971341230416622e-01
1.474971341230416622e-01
1.345051585785250192e-01
1.345051585785250192e-01
1.345051585785250192e-01
1.108139090561711948e-01
1.108139090561711948e-01
1.402369124952235480e-01
1.402369124952235480e-01
1.402369124952235480e-01
1.367978601452044252e-01
1.367978601452044252e-01
1.127244936950706905e-01
1.127244936950706905e-01
1.127244936950706905e-01
1.390905617118838311e-01
1.390905617118838311e-01
1.096675582728314918e-01
1.096675582728314918e-01
1.096675582728314918e-01
1.257164692395873196e-01
1.257164692395873196e-01
1.436759648452426430e-01
1.436759648452426430e-01
1.436759648452426430e-01
1.455865494841421526e-01
1.455865494841421526e-01
1.127244936950706905e-01
1.127244936950706905e-01
1.119602598395108839e-01
1.119602598395108839e-01
1.119602598395108839e-01
1.303018723729461315e-01
1.303018723729461315e-01
1.291555215896064146e-01
1.291555215896064146e-01
1.291555215896064146e-01
1.478792510508215585e-01
1.478792510508215585e-01
1.448223156285823598e-01
1.448223156285823598e-01
1.448223156285823598e-01
1.432938479174627466e-01
1.432938479174627466e-01
1.161635460450897994e-01
1.161635460450897994e-01
1.161635460450897994e-01
1.092854413450515816e-01
1.092854413450515816e-01
1.108139090561711948e-01
1.108139090561711948e-01
1.108139090561711948e-01
1.417653802063431334e-01
1.417653802063431334e-01
1.100496752006113882e-01
1.100496752006113882e-01
1.100496752006113882e-01
1.314482231562858205e-01
1.314482231562858205e-01
1.291555215896064146e-01
1.291555215896064146e-01
1.291555215896064146e-01
1.134887275506304971e-01
1.134887275506304971e-01
1.119602598395108839e-01
1.119602598395108839e-01
1.119602598395108839e-01
1.299197554451662073e-01
1.299197554451662073e-01
1.104317921283912846e-01
1.104317921283912846e-01
1.104317921283912846e-01
1.092854413450515816e-01
1.092854413450515816e-01
1.432938479174627466e-01
1.432938479174627466e-01
1.432938479174627466e-01
1.218952999617883004e-01
1.218952999617883004e-01
1.402369124952235480e-01
1.402369124952235480e-01
1.402369124952235480e-01
1.104317921283912846e-01
1.104317921283912846e-01
1.283912877340466219e-01
1.283912877340466219e-01
1.283912877340466219e-01
1.410011463507833407e-01
1.410011463507833407e-01
1.310661062285059242e-01
1.310661062285059242e-01
1.310661062285059242e-01
1.153993121895299928e-01
1.153993121895299928e-01
1.199847153228888047e-01
1.199847153228888047e-01
1.199847153228888047e-01
1.398547955674436516e-01
1.398547955674436516e-01
1.108139090561711948e-01
1.108139090561711948e-01
1.108139090561711948e-01
1.410011463507833407e-01
1.410011463507833407e-01
1.356515093618647361e-01
1.356515093618647361e-01
1.356515093618647361e-01
1.394726786396637275e-01
1.394726786396637275e-01
1.134887275506304971e-01
1.134887275506304971e-01
1.134887275506304971e-01
1.257164692395873196e-01
1.257164692395873196e-01
1.333588077951853301e-01
1.333588077951853301e-01
1.333588077951853301e-01
1.268628200229270087e-01
1.268628200229270087e-01
1.383263278563240384e-01
1.383263278563240384e-01
1.383263278563240384e-01
1.066106228505922793e-01
1.066106228505922793e-01
1.268628200229270087e-01
1.268628200229270087e-01
1.268628200229270087e-01
1.280091708062667255e-01
1.280091708062667255e-01
1.249522353840275130e-01
1.249522353840275130e-01
1.249522353840275130e-01
1.153993121895299928e-01
1.153993121895299928e-01
1.410011463507833407e-01
1.410011463507833407e-01
1.410011463507833407e-01
1.329766908674054338e-01
1.329766908674054338e-01
1.096675582728314918e-01
1.096675582728314918e-01
1.096675582728314918e-01
1.115781429117309875e-01
1.115781429117309875e-01
1.253343523118074232e-01
1.253343523118074232e-01
1.253343523118074232e-01
1.387084447841039347e-01
1.387084447841039347e-01
1.253343523118074232e-01
1.253343523118074232e-01
1.253343523118074232e-01
1.153993121895299928e-01
1.153993121895299928e-01
1.173098968284295024e-01
1.173098968284295024e-01
1.173098968284295024e-01
1.356515093618647361e-01
1.356515093618647361e-01
1.180741306839892951e-01
1.180741306839892951e-01
1.180741306839892951e-01
1.260985861673672159e-01
1.260985861673672159e-01
1.543752388230798522e-01
1.543752388230798522e-01
1.543752388230798522e-01
1.371799770729843215e-01
1.371799770729843215e-01
1.650745128009170892e-01
1.650745128009170892e-01
1.650745128009170892e-01
1.463507833397019453e-01
1.463507833397019453e-01
1.517004203286205499e-01
1.517004203286205499e-01
1.517004203286205499e-01
1.669850974398165711e-01
1.669850974398165711e-01
1.880015284677111209e-01
1.880015284677111209e-01
1.880015284677111209e-01
1.688956820787160806e-01
1.688956820787160806e-01
1.688956820787160806e-01
1.688956820787160806e-01
1.688956820787160806e-01
2.013756209400076325e-01
2.013756209400076325e-01
2.036683225066870384e-01
2.036683225066870384e-01
2.036683225066870384e-01
1.987008024455483302e-01
1.987008024455483302e-01
2.051967902178066516e-01
2.051967902178066516e-01
2.051967902178066516e-01
2.411157814291172985e-01
2.411157814291172985e-01
2.357661444401986939e-01
2.357661444401986939e-01
2.357661444401986939e-01
2.430263660680168081e-01
2.430263660680168081e-01
2.430263660680168081e-01
2.430263660680168081e-01
2.430263660680168081e-01
2.510508215513947428e-01
2.510508215513947428e-01
2.953763851738632207e-01
2.953763851738632207e-01
2.953763851738632207e-01
2.758884218570882840e-01
2.758884218570882840e-01
2.804738249904470959e-01
2.804738249904470959e-01
2.804738249904470959e-01
3.125716469239587236e-01
3.125716469239587236e-01
3.102789453572793454e-01
3.102789453572793454e-01
3.102789453572793454e-01
3.282384409629346411e-01
3.282384409629346411e-01
3.083683607183798081e-01
3.083683607183798081e-01
3.083683607183798081e-01
3.156285823461979501e-01
3.156285823461979501e-01
3.389377149407718504e-01
3.389377149407718504e-01
3.320596102407336603e-01
3.320596102407336603e-01
3.320596102407336603e-01
3.698891860909438445e-01
3.698891860909438445e-01
3.717997707298433263e-01
3.717997707298433263e-01
3.717997707298433263e-01
3.572793274742070979e-01
3.572793274742070979e-01
3.526939243408482860e-01
3.526939243408482860e-01
3.526939243408482860e-01
3.595720290408865316e-01
3.595720290408865316e-01
3.943446694688574894e-01
3.943446694688574894e-01
3.943446694688574894e-01
3.626289644631257025e-01
3.626289644631257025e-01
3.714176538020634299e-01
3.714176538020634299e-01
3.714176538020634299e-01
3.928162017577378484e-01
3.928162017577378484e-01
3.717997707298433263e-01
3.717997707298433263e-01
3.717997707298433263e-01
3.767672907909820346e-01
3.767672907909820346e-01
4.069545280855941805e-01
4.069545280855941805e-01
4.069545280855941805e-01
3.851738632021398656e-01
3.851738632021398656e-01
3.824990447076805355e-01
3.824990447076805355e-01
3.824990447076805355e-01
3.867023309132594511e-01
3.867023309132594511e-01
4.019870080244554722e-01
4.019870080244554722e-01
4.019870080244554722e-01
3.947267863966373858e-01
3.947267863966373858e-01
3.912877340466182630e-01
3.912877340466182630e-01
3.912877340466182630e-01
4.199465036301108234e-01
4.199465036301108234e-01
4.222392051967902016e-01
4.222392051967902016e-01
4.222392051967902016e-01
4.103935804356133032e-01
4.103935804356133032e-01
4.241497898356897389e-01
4.241497898356897389e-01
4.241497898356897389e-01
4.008406572411157831e-01
4.008406572411157831e-01
3.916698509743981593e-01
3.916698509743981593e-01
3.916698509743981593e-01
4.149789835689721151e-01
4.149789835689721151e-01
3.882307986243790365e-01
3.882307986243790365e-01
3.882307986243790365e-01
4.161253343523118042e-01
4.161253343523118042e-01
3.985479556744364049e-01
3.985479556744364049e-01
3.985479556744364049e-01
3.912877340466182630e-01
3.912877340466182630e-01
4.130683989300725778e-01
4.130683989300725778e-01
4.130683989300725778e-01
4.100114635078334069e-01
4.100114635078334069e-01
4.088651127244937178e-01
4.088651127244937178e-01
4.088651127244937178e-01
3.996943064577760940e-01
3.996943064577760940e-01
3.794421092854413646e-01
3.794421092854413646e-01
3.794421092854413646e-01
4.119220481467328887e-01
4.119220481467328887e-01
3.817348108521207428e-01
3.817348108521207428e-01
3.817348108521207428e-01
3.687428353076040999e-01
3.687428353076040999e-01
3.698891860909438445e-01
3.698891860909438445e-01
3.698891860909438445e-01
3.679786014520443072e-01
3.679786014520443072e-01
3.901413832632785739e-01
3.901413832632785739e-01
3.901413832632785739e-01
3.714176538020634299e-01
3.714176538020634299e-01
3.756209400076423455e-01
3.756209400076423455e-01
3.756209400076423455e-01
3.813526939243408465e-01
3.813526939243408465e-01
3.561329766908674088e-01
3.561329766908674088e-01
3.561329766908674088e-01
3.840275124188001765e-01
3.840275124188001765e-01
3.423767672907909732e-01
3.423767672907909732e-01
3.423767672907909732e-01
3.507833397019488042e-01
3.507833397019488042e-01
3.446694688574704069e-01
3.446694688574704069e-01
3.446694688574704069e-01
3.351165456629728867e-01
3.351165456629728867e-01
3.335880779518532457e-01
3.335880779518532457e-01
3.335880779518532457e-01
3.553687428353076161e-01
3.553687428353076161e-01
3.580435613297668906e-01
3.580435613297668906e-01
3.580435613297668906e-01
3.568972105464272015e-01
3.568972105464272015e-01
3.377913641574321613e-01
3.377913641574321613e-01
3.377913641574321613e-01
3.095147115017195527e-01
3.095147115017195527e-01
3.129537638517386200e-01
3.129537638517386200e-01
3.129537638517386200e-01
3.045471914405808445e-01
3.045471914405808445e-01
3.312953763851738676e-01
3.312953763851738676e-01
3.312953763851738676e-01
3.018723729461215144e-01
3.018723729461215144e-01
3.232709209017959329e-01
3.232709209017959329e-01
3.232709209017959329e-01
3.030187237294612035e-01
3.030187237294612035e-01
2.842949942682460596e-01
2.842949942682460596e-01
2.842949942682460596e-01
3.114252961406190345e-01
3.114252961406190345e-01
2.728314864348490576e-01
2.728314864348490576e-01
2.728314864348490576e-01
2.743599541459686431e-01
2.743599541459686431e-01
2.686282002292701421e-01
2.686282002292701421e-01
2.686282002292701421e-01
2.774168895682078695e-01
2.774168895682078695e-01
2.904088651127245124e-01
2.904088651127245124e-01
2.904088651127245124e-01
2.690103171570500384e-01
2.690103171570500384e-01
2.564004585403133474e-01
2.564004585403133474e-01
2.564004585403133474e-01
2.693924340848299348e-01
2.693924340848299348e-01
2.632785632403515375e-01
2.632785632403515375e-01
2.632785632403515375e-01
2.690103171570500384e-01
2.690103171570500384e-01
2.693924340848299348e-01
2.693924340848299348e-01
2.693924340848299348e-01
2.296522735957202965e-01
2.296522735957202965e-01
2.285059228123805797e-01
2.285059228123805797e-01
2.285059228123805797e-01
2.250668704623614846e-01
2.250668704623614846e-01
2.285059228123805797e-01
2.285059228123805797e-01
2.285059228123805797e-01
2.300343905235001929e-01
2.300343905235001929e-01
2.193351165456629837e-01
2.193351165456629837e-01
2.193351165456629837e-01
2.319449751623997025e-01
2.319449751623997025e-01
2.143675964845242754e-01
2.143675964845242754e-01
2.342376767290791084e-01
2.342376767290791084e-01
2.342376767290791084e-01
2.197172334734428800e-01
2.197172334734428800e-01
2.239205196790217678e-01
2.239205196790217678e-01
2.239205196790217678e-01
2.281238058846006833e-01
2.281238058846006833e-01
2.307986243790599856e-01
2.307986243790599856e-01
2.307986243790599856e-01
2.017577378677875566e-01
2.017577378677875566e-01
1.979365685899885374e-01
1.979365685899885374e-01
1.979365685899885374e-01
2.346197936568590048e-01
2.346197936568590048e-01
2.120748949178448695e-01
2.120748949178448695e-01
2.120748949178448695e-01
2.006113870844478397e-01
2.006113870844478397e-01
2.231562858234619751e-01
2.231562858234619751e-01
2.231562858234619751e-01
2.243026366068016919e-01
2.243026366068016919e-01
1.883836453954910173e-01
1.883836453954910173e-01
1.883836453954910173e-01
1.990829193733282265e-01
1.990829193733282265e-01
1.883836453954910173e-01
1.883836453954910173e-01
1.883836453954910173e-01
2.074894917844860576e-01
2.074894917844860576e-01
1.864730607565915077e-01
1.864730607565915077e-01
1.864730607565915077e-01
2.116927779900649731e-01
2.116927779900649731e-01
2.193351165456629837e-01
2.193351165456629837e-01
2.193351165456629837e-01
2.143675964845242754e-01
2.143675964845242754e-01
1.795949560565533176e-01
1.795949560565533176e-01
1.795949560565533176e-01
1.780664883454337044e-01
1.780664883454337044e-01
1.899121131066106305e-01
1.899121131066106305e-01
1.899121131066106305e-01
1.780664883454337044e-01
1.780664883454337044e-01
1.761559037065341948e-01
1.761559037065341948e-01
1.761559037065341948e-01
1.983186855177684338e-01
1.983186855177684338e-01
1.776843714176538080e-01
1.776843714176538080e-01
1.776843714176538080e-01
1.826518914787925163e-01
1.826518914787925163e-01
1.925869316010699328e-01
1.925869316010699328e-01
1.925869316010699328e-01
1.692777990064959770e-01
1.692777990064959770e-01
2.032862055789071420e-01
2.032862055789071420e-01
2.032862055789071420e-01
1.669850974398165711e-01
1.669850974398165711e-01
1.788307222009934971e-01
1.788307222009934971e-01
1.788307222009934971e-01
1.868551776843714041e-01
1.868551776843714041e-01
1.849445930454719222e-01
1.849445930454719222e-01
1.849445930454719222e-01
1.818876576232326958e-01
1.818876576232326958e-01
1.944975162399694424e-01
1.944975162399694424e-01
1.944975162399694424e-01
1.601069927397783810e-01
1.601069927397783810e-01
1.834161253343523090e-01
1.834161253343523090e-01
1.834161253343523090e-01
1.566679403897592582e-01
1.566679403897592582e-01
1.559037065341994654e-01
1.559037065341994654e-01
1.559037065341994654e-01
1.547573557508597764e-01
1.547573557508597764e-01
1.559037065341994654e-01
1.559037065341994654e-01
1.559037065341994654e-01
1.585785250286587678e-01
1.585785250286587678e-01
1.837982422621322054e-01
1.837982422621322054e-01
1.837982422621322054e-01
1.891478792510508100e-01
1.891478792510508100e-01
1.559037065341994654e-01
1.559037065341994654e-01
1.559037065341994654e-01
1.673672143675964952e-01
1.673672143675964952e-01
1.769201375620939876e-01
1.769201375620939876e-01
1.769201375620939876e-01
1.750095529231945057e-01
1.750095529231945057e-01
1.807413068398930067e-01
1.807413068398930067e-01
1.807413068398930067e-01
1.398547955674436516e-01
1.398547955674436516e-01
1.654566297286969856e-01
1.654566297286969856e-01
1.654566297286969856e-01
1.730989682842949962e-01
1.730989682842949962e-01
1.459686664119220489e-01
1.459686664119220489e-01
1.459686664119220489e-01
1.780664883454337044e-01
1.780664883454337044e-01
1.666029805120366747e-01
1.666029805120366747e-01
1.666029805120366747e-01
1.497898356897210681e-01
1.497898356897210681e-01
1.406190294230034443e-01
1.406190294230034443e-01
1.406190294230034443e-01
1.727168513565150998e-01
1.727168513565150998e-01
1.367978601452044252e-01
1.367978601452044252e-01
1.367978601452044252e-01
1.669850974398165711e-01
1.669850974398165711e-01
1.345051585785250192e-01
1.345051585785250192e-01
1.345051585785250192e-01
1.662208635842567783e-01
1.662208635842567783e-01
1.494077187619411440e-01
1.494077187619411440e-01
1.494077187619411440e-01
1.513183034008406536e-01
1.513183034008406536e-01
1.367978601452044252e-01
1.367978601452044252e-01
1.367978601452044252e-01
1.597248758119984846e-01
1.597248758119984846e-01
1.459686664119220489e-01
1.459686664119220489e-01
1.459686664119220489e-01
1.646923958731371929e-01
1.646923958731371929e-01
1.639281620175773724e-01
1.639281620175773724e-01
1.639281620175773724e-01
1.612533435231180701e-01
1.612533435231180701e-01
1.295376385173863110e-01
1.295376385173863110e-01
1.295376385173863110e-01
1.390905617118838311e-01
1.390905617118838311e-01
1.249522353840275130e-01
1.249522353840275130e-01
1.249522353840275130e-01
1.299197554451662073e-01
1.299197554451662073e-01
1.260985861673672159e-01
1.260985861673672159e-01
1.260985861673672159e-01
1.432938479174627466e-01
1.432938479174627466e-01
1.555215896064195691e-01
1.555215896064195691e-01
1.555215896064195691e-01
1.505540695452808608e-01
1.505540695452808608e-01
1.283912877340466219e-01
1.283912877340466219e-01
1.260985861673672159e-01
1.260985861673672159e-01
1.260985861673672159e-01
1.379442109285441420e-01
1.379442109285441420e-01
1.612533435231180701e-01
1.612533435231180701e-01
1.612533435231180701e-01
1.272449369507069050e-01
1.272449369507069050e-01
1.467329002674818417e-01
1.467329002674818417e-01
1.467329002674818417e-01
1.364157432174245288e-01
1.364157432174245288e-01
1.329766908674054338e-01
1.329766908674054338e-01
1.329766908674054338e-01
1.566679403897592582e-01
1.566679403897592582e-01
1.387084447841039347e-01
1.387084447841039347e-01
1.387084447841039347e-01
1.287734046618265182e-01
1.287734046618265182e-01
1.283912877340466219e-01
1.283912877340466219e-01
1.283912877340466219e-01
1.192204814673289981e-01
1.192204814673289981e-01
1.253343523118074232e-01
1.253343523118074232e-01
1.253343523118074232e-01
1.188383645395491017e-01
1.188383645395491017e-01
1.215131830340084040e-01
1.215131830340084040e-01
1.215131830340084040e-01
1.452044325563622562e-01
1.452044325563622562e-01
1.387084447841039347e-01
1.387084447841039347e-01
1.387084447841039347e-01
1.234237676729079136e-01
1.234237676729079136e-01
1.299197554451662073e-01
1.299197554451662073e-01
1.299197554451662073e-01
1.192204814673289981e-01
1.192204814673289981e-01
1.245701184562476166e-01
1.245701184562476166e-01
1.245701184562476166e-01
1.524646541841803704e-01
1.524646541841803704e-01
1.440580817730225394e-01
1.440580817730225394e-01
1.440580817730225394e-01
1.367978601452044252e-01
1.367978601452044252e-01
1.375620940007642456e-01
1.375620940007642456e-01
1.375620940007642456e-01
1.260985861673672159e-01
1.260985861673672159e-01
1.501719526175009645e-01
1.501719526175009645e-01
1.501719526175009645e-01
1.199847153228888047e-01
1.199847153228888047e-01
1.448223156285823598e-01
1.448223156285823598e-01
1.448223156285823598e-01
1.467329002674818417e-01
1.467329002674818417e-01
1.211310661062285077e-01
1.211310661062285077e-01
1.211310661062285077e-01
1.188383645395491017e-01
1.188383645395491017e-01
1.532288880397401631e-01
1.532288880397401631e-01
1.532288880397401631e-01
1.486434849063813513e-01
1.486434849063813513e-01
1.184562476117692054e-01
1.184562476117692054e-01
1.184562476117692054e-01
1.303018723729461315e-01
1.303018723729461315e-01
1.440580817730225394e-01
1.440580817730225394e-01
1.440580817730225394e-01
1.471150171952617380e-01
1.471150171952617380e-01
1.559037065341994654e-01
1.559037065341994654e-01
1.559037065341994654e-01
1.241880015284677063e-01
1.241880015284677063e-01
1.528467711119602668e-01
1.528467711119602668e-01
1.528467711119602668e-01
1.513183034008406536e-01
1.513183034008406536e-01
1.467329002674818417e-01
1.467329002674818417e-01
1.467329002674818417e-01
1.364157432174245288e-01
1.364157432174245288e-01
1.230416507451280034e-01
1.230416507451280034e-01
1.230416507451280034e-01
1.551394726786396727e-01
1.551394726786396727e-01
1.452044325563622562e-01
1.452044325563622562e-01
1.452044325563622562e-01
1.406190294230034443e-01
1.406190294230034443e-01
1.474971341230416622e-01
1.474971341230416622e-01
1.474971341230416622e-01
1.272449369507069050e-01
1.272449369507069050e-01
1.520825372564004463e-01
1.520825372564004463e-01
1.520825372564004463e-01
1.138708444784103935e-01
1.138708444784103935e-01
1.425296140619029539e-01
1.425296140619029539e-01
1.425296140619029539e-01
1.230416507451280034e-01
1.230416507451280034e-01
1.138708444784103935e-01
1.138708444784103935e-01
1.138708444784103935e-01
1.142529614061902898e-01
1.142529614061902898e-01
1.165456629728696958e-01
1.165456629728696958e-01
1.165456629728696958e-01
1.471150171952617380e-01
1.471150171952617380e-01
1.490256018341612476e-01
1.490256018341612476e-01
1.490256018341612476e-01
1.134887275506304971e-01
1.134887275506304971e-01
1.494077187619411440e-01
1.494077187619411440e-01
1.494077187619411440e-01
1.471150171952617380e-01
1.471150171952617380e-01
1.452044325563622562e-01
1.452044325563622562e-01
1.452044325563622562e-01
1.306839893007260278e-01
1.306839893007260278e-01
1.501719526175009645e-01
1.501719526175009645e-01
1.501719526175009645e-01
1.134887275506304971e-01
1.134887275506304971e-01
1.173098968284295024e-01
1.173098968284295024e-01
1.173098968284295024e-01
1.551394726786396727e-01
1.551394726786396727e-01
1.467329002674818417e-01
1.467329002674818417e-01
1.467329002674818417e-01
1.196025983951089083e-01
1.196025983951089083e-01
1.180741306839892951e-01
1.180741306839892951e-01
1.180741306839892951e-01
1.215131830340084040e-01
1.215131830340084040e-01
1.490256018341612476e-01
1.490256018341612476e-01
1.490256018341612476e-01
1.287734046618265182e-01
1.287734046618265182e-01
1.348872755063049156e-01
1.348872755063049156e-01
1.348872755063049156e-01
1.345051585785250192e-01
1.345051585785250192e-01
1.253343523118074232e-01
1.253343523118074232e-01
1.253343523118074232e-01
1.547573557508597764e-01
1.547573557508597764e-01
1.635460450897974760e-01
1.635460450897974760e-01
1.635460450897974760e-01
1.364157432174245288e-01
1.364157432174245288e-01
1.348872755063049156e-01
1.348872755063049156e-01
1.643102789453572687e-01
1.643102789453572687e-01
1.643102789453572687e-01
1.685135651509361843e-01
1.685135651509361843e-01
1.593427588842185605e-01
1.593427588842185605e-01
1.593427588842185605e-01
1.654566297286969856e-01
1.654566297286969856e-01
1.795949560565533176e-01
1.795949560565533176e-01
1.795949560565533176e-01
1.815055406954527994e-01
1.815055406954527994e-01
1.662208635842567783e-01
1.662208635842567783e-01
1.662208635842567783e-01
1.807413068398930067e-01
1.807413068398930067e-01
1.688956820787160806e-01
1.688956820787160806e-01
1.688956820787160806e-01
2.032862055789071420e-01
2.032862055789071420e-01
2.162781811234237572e-01
2.162781811234237572e-01
2.162781811234237572e-01
2.051967902178066516e-01
2.051967902178066516e-01
2.281238058846006833e-01
2.281238058846006833e-01
2.281238058846006833e-01
2.464654184180359309e-01
2.464654184180359309e-01
2.197172334734428800e-01
2.197172334734428800e-01
2.197172334734428800e-01
2.304165074512800893e-01
2.304165074512800893e-01
2.762705387848681804e-01
2.762705387848681804e-01
2.762705387848681804e-01
2.808559419182269923e-01
2.808559419182269923e-01
2.808559419182269923e-01
2.808559419182269923e-01
2.808559419182269923e-01
2.789453572793274549e-01
2.789453572793274549e-01
3.060756591517004299e-01
3.060756591517004299e-01
3.060756591517004299e-01
3.121895299961788273e-01
3.121895299961788273e-01
3.232709209017959329e-01
3.232709209017959329e-01
3.232709209017959329e-01
3.232709209017959329e-01
3.232709209017959329e-01
3.404661826518914913e-01
3.404661826518914913e-01
3.404661826518914913e-01
3.324417271685135566e-01
3.324417271685135566e-01
3.553687428353076161e-01
3.553687428353076161e-01
3.553687428353076161e-01
3.530760412686281824e-01
3.530760412686281824e-01
3.393198318685518022e-01
3.393198318685518022e-01
3.393198318685518022e-01
3.740924722965227600e-01
3.740924722965227600e-01
3.454337027130301996e-01
3.454337027130301996e-01
3.454337027130301996e-01
3.855559801299197620e-01
3.855559801299197620e-01
3.813526939243408465e-01
3.813526939243408465e-01
3.813526939243408465e-01
3.607183798242262207e-01
3.607183798242262207e-01
3.706534199465036372e-01
3.706534199465036372e-01
3.706534199465036372e-01
3.828811616354604319e-01
3.828811616354604319e-01
3.912877340466182630e-01
3.912877340466182630e-01
3.912877340466182630e-01
3.939625525410775930e-01
3.939625525410775930e-01
4.023691249522353686e-01
4.023691249522353686e-01
4.023691249522353686e-01
3.985479556744364049e-01
3.985479556744364049e-01
3.970194879633167639e-01
3.970194879633167639e-01
3.970194879633167639e-01
3.851738632021398656e-01
3.851738632021398656e-01
4.237676729079098426e-01
4.237676729079098426e-01
4.237676729079098426e-01
4.249140236912495316e-01
4.249140236912495316e-01
4.023691249522353686e-01
4.023691249522353686e-01
4.023691249522353686e-01
4.264424914023691171e-01
4.264424914023691171e-01
4.283530760412686544e-01
4.283530760412686544e-01
4.283530760412686544e-01
3.947267863966373858e-01
3.947267863966373858e-01
4.069545280855941805e-01
4.069545280855941805e-01
4.069545280855941805e-01
4.249140236912495316e-01
4.249140236912495316e-01
4.210928544134505125e-01
4.210928544134505125e-01
4.210928544134505125e-01
4.291173098968284472e-01
4.291173098968284472e-01
4.096293465800535105e-01
4.096293465800535105e-01
4.096293465800535105e-01
4.195643867023309270e-01
4.195643867023309270e-01
4.252961406190294280e-01
4.252961406190294280e-01
4.252961406190294280e-01
4.184180359189912379e-01
4.184180359189912379e-01
3.996943064577760940e-01
3.996943064577760940e-01
3.996943064577760940e-01
3.966373710355368676e-01
3.966373710355368676e-01
3.909056171188383666e-01
3.909056171188383666e-01
3.909056171188383666e-01
3.905235001910584702e-01
3.905235001910584702e-01
4.103935804356133032e-01
4.103935804356133032e-01
4.103935804356133032e-01
4.207107374856706161e-01
4.207107374856706161e-01
4.145968666411922188e-01
4.145968666411922188e-01
4.145968666411922188e-01
4.081008788689338695e-01
4.081008788689338695e-01
4.000764233855559904e-01
4.000764233855559904e-01
4.000764233855559904e-01
4.081008788689338695e-01
4.081008788689338695e-01
4.016048910966755758e-01
4.016048910966755758e-01
4.016048910966755758e-01
4.008406572411157831e-01
4.008406572411157831e-01
3.641574321742453435e-01
3.641574321742453435e-01
3.641574321742453435e-01
3.924340848299579521e-01
3.924340848299579521e-01
3.687428353076040999e-01
3.687428353076040999e-01
3.687428353076040999e-01
3.645395491020252399e-01
3.645395491020252399e-01
3.817348108521207428e-01
3.817348108521207428e-01
3.817348108521207428e-01
3.656858998853649290e-01
3.656858998853649290e-01
3.484906381352693705e-01
3.484906381352693705e-01
3.484906381352693705e-01
3.439052350019105586e-01
3.439052350019105586e-01
3.710355368742835336e-01
3.710355368742835336e-01
3.710355368742835336e-01
3.679786014520443072e-01
3.679786014520443072e-01
3.397019487963316986e-01
3.397019487963316986e-01
3.397019487963316986e-01
3.244172716851356775e-01
3.244172716851356775e-01
3.473442873519296814e-01
3.473442873519296814e-01
3.473442873519296814e-01
3.179212839128773282e-01
3.179212839128773282e-01
3.461979365685899923e-01
3.461979365685899923e-01
3.133358807795185164e-01
3.133358807795185164e-01
3.133358807795185164e-01
3.087504776461597045e-01
3.087504776461597045e-01
3.221245701184562438e-01
3.221245701184562438e-01
3.221245701184562438e-01
3.408482995796713877e-01
3.408482995796713877e-01
3.022544898739014108e-01
3.022544898739014108e-01
3.022544898739014108e-01
3.259457393962552629e-01
3.259457393962552629e-01
3.183034008406572246e-01
3.183034008406572246e-01
3.183034008406572246e-01
3.232709209017959329e-01
3.232709209017959329e-01
3.064577760794803263e-01
3.064577760794803263e-01
3.064577760794803263e-01
3.125716469239587236e-01
3.125716469239587236e-01
2.854413450515858042e-01
2.854413450515858042e-01
2.854413450515858042e-01
2.747420710737485394e-01
2.747420710737485394e-01
2.915552158960642015e-01
2.915552158960642015e-01
2.915552158960642015e-01
2.991975544516621843e-01
2.991975544516621843e-01
2.842949942682460596e-01
2.842949942682460596e-01
2.842949942682460596e-01
2.713030187237294721e-01
2.713030187237294721e-01
2.644249140236912266e-01
2.644249140236912266e-01
2.644249140236912266e-01
2.537256400458540173e-01
2.537256400458540173e-01
2.541077569736339137e-01
2.541077569736339137e-01
2.541077569736339137e-01
2.655712648070309712e-01
2.655712648070309712e-01
2.449369507069163177e-01
2.449369507069163177e-01
2.449369507069163177e-01
2.590752770347726219e-01
2.590752770347726219e-01
2.384409629346579962e-01
2.384409629346579962e-01
2.384409629346579962e-01
2.468475353458158272e-01
2.468475353458158272e-01
2.350019105846389011e-01
2.350019105846389011e-01
2.350019105846389011e-01
2.663354986625907639e-01
2.663354986625907639e-01
2.594573939625525183e-01
2.594573939625525183e-01
2.594573939625525183e-01
2.632785632403515375e-01
2.632785632403515375e-01
2.315628582346198061e-01
2.315628582346198061e-01
2.315628582346198061e-01
2.590752770347726219e-01
2.590752770347726219e-01
2.346197936568590048e-01
2.346197936568590048e-01
2.346197936568590048e-01
2.541077569736339137e-01
2.541077569736339137e-01
2.204814673290026728e-01
2.204814673290026728e-01
2.204814673290026728e-01
2.502865876958349500e-01
2.502865876958349500e-01
2.311807413068398820e-01
2.311807413068398820e-01
2.311807413068398820e-01
2.151318303400840681e-01
2.151318303400840681e-01
2.113106610622850490e-01
2.113106610622850490e-01
2.113106610622850490e-01
2.338555598012991843e-01
2.338555598012991843e-01
2.437905999235766008e-01
2.437905999235766008e-01
2.437905999235766008e-01
2.067252579289262648e-01
2.067252579289262648e-01
2.342376767290791084e-01
2.342376767290791084e-01
2.342376767290791084e-01
2.334734428735192879e-01
2.334734428735192879e-01
2.128391287734046622e-01
2.128391287734046622e-01
2.128391287734046622e-01
2.017577378677875566e-01
2.017577378677875566e-01
2.051967902178066516e-01
2.051967902178066516e-01
2.051967902178066516e-01
2.235384027512418714e-01
2.235384027512418714e-01
1.967902178066488483e-01
1.967902178066488483e-01
1.967902178066488483e-01
2.304165074512800893e-01
2.304165074512800893e-01
2.216278181123423896e-01
2.216278181123423896e-01
2.216278181123423896e-01
1.891478792510508100e-01
1.891478792510508100e-01
2.185708826901031632e-01
2.185708826901031632e-01
2.185708826901031632e-01
2.051967902178066516e-01
2.051967902178066516e-01
1.811234237676729031e-01
1.811234237676729031e-01
1.811234237676729031e-01
1.815055406954527994e-01
1.815055406954527994e-01
2.021398547955674529e-01
2.021398547955674529e-01
2.021398547955674529e-01
1.899121131066106305e-01
1.899121131066106305e-01
1.990829193733282265e-01
1.990829193733282265e-01
1.990829193733282265e-01
1.761559037065341948e-01
1.761559037065341948e-01
2.128391287734046622e-01
2.128391287734046622e-01
2.128391287734046622e-01
2.071073748567061612e-01
2.071073748567061612e-01
2.128391287734046622e-01
2.128391287734046622e-01
2.128391287734046622e-01
1.887657623232709136e-01
1.887657623232709136e-01
2.002292701566679434e-01
2.002292701566679434e-01
2.002292701566679434e-01
1.830340084065724127e-01
1.830340084065724127e-01
1.742453190676346853e-01
1.742453190676346853e-01
1.742453190676346853e-01
1.673672143675964952e-01
1.673672143675964952e-01
1.746274359954146094e-01
1.746274359954146094e-01
1.746274359954146094e-01
1.998471532288880470e-01
1.998471532288880470e-01
1.650745128009170892e-01
1.650745128009170892e-01
1.650745128009170892e-01
1.864730607565915077e-01
1.864730607565915077e-01
1.971723347344287447e-01
1.971723347344287447e-01
1.971723347344287447e-01
1.860909438288116113e-01
1.860909438288116113e-01
1.719526175009552793e-01
1.719526175009552793e-01
1.719526175009552793e-01
1.765380206343140912e-01
1.765380206343140912e-01
1.604891096675582773e-01
1.604891096675582773e-01
1.604891096675582773e-01
1.914405808177302160e-01
1.914405808177302160e-01
1.937332823844096219e-01
1.937332823844096219e-01
1.937332823844096219e-01
1.853267099732518186e-01
1.853267099732518186e-01
1.559037065341994654e-01
1.559037065341994654e-01
1.559037065341994654e-01
1.883836453954910173e-01
1.883836453954910173e-01
1.581964081008788714e-01
1.581964081008788714e-01
1.620175773786778628e-01
1.620175773786778628e-01
1.620175773786778628e-01
1.860909438288116113e-01
1.860909438288116113e-01
1.528467711119602668e-01
1.528467711119602668e-01
1.528467711119602668e-01
1.822697745510126199e-01
1.822697745510126199e-01
1.811234237676729031e-01
1.811234237676729031e-01
1.811234237676729031e-01
1.830340084065724127e-01
1.830340084065724127e-01
1.528467711119602668e-01
1.528467711119602668e-01
1.528467711119602668e-01
1.585785250286587678e-01
1.585785250286587678e-01
1.497898356897210681e-01
1.497898356897210681e-01
1.497898356897210681e-01
1.646923958731371929e-01
1.646923958731371929e-01
1.543752388230798522e-01
1.543752388230798522e-01
1.543752388230798522e-01
1.788307222009934971e-01
1.788307222009934971e-01
1.559037065341994654e-01
1.559037065341994654e-01
1.559037065341994654e-01
1.589606419564386641e-01
1.589606419564386641e-01
1.799770729843332140e-01
1.799770729843332140e-01
1.799770729843332140e-01
1.551394726786396727e-01
1.551394726786396727e-01
1.738632021398547889e-01
1.738632021398547889e-01
1.738632021398547889e-01
1.669850974398165711e-01
1.669850974398165711e-01
1.643102789453572687e-01
1.643102789453572687e-01
1.643102789453572687e-01
1.360336262896446324e-01
1.360336262896446324e-01
1.708062667176155902e-01
1.708062667176155902e-01
1.708062667176155902e-01
1.601069927397783810e-01
1.601069927397783810e-01
1.360336262896446324e-01
1.360336262896446324e-01
1.360336262896446324e-01
1.570500573175391545e-01
1.570500573175391545e-01
1.345051585785250192e-01
1.345051585785250192e-01
1.345051585785250192e-01
1.379442109285441420e-01
1.379442109285441420e-01
1.669850974398165711e-01
1.669850974398165711e-01
1.669850974398165711e-01
1.364157432174245288e-01
1.364157432174245288e-01
1.348872755063049156e-01
1.348872755063049156e-01
1.348872755063049156e-01
1.608712265953381737e-01
1.608712265953381737e-01
1.646923958731371929e-01
1.646923958731371929e-01
1.646923958731371929e-01
1.352693924340848397e-01
1.352693924340848397e-01
1.425296140619029539e-01
1.425296140619029539e-01
1.425296140619029539e-01
1.467329002674818417e-01
1.467329002674818417e-01
1.685135651509361843e-01
1.685135651509361843e-01
1.685135651509361843e-01
1.696599159342759011e-01
1.696599159342759011e-01
1.700420328620557975e-01
1.700420328620557975e-01
1.700420328620557975e-01
1.681314482231562879e-01
1.681314482231562879e-01
1.329766908674054338e-01
1.329766908674054338e-01
1.329766908674054338e-01
1.410011463507833407e-01
1.410011463507833407e-01
1.436759648452426430e-01
1.436759648452426430e-01
1.436759648452426430e-01
1.520825372564004463e-01
1.520825372564004463e-01
1.432938479174627466e-01
1.432938479174627466e-01
1.432938479174627466e-01
1.662208635842567783e-01
1.662208635842567783e-01
1.432938479174627466e-01
1.432938479174627466e-01
1.432938479174627466e-01
1.616354604508979664e-01
1.616354604508979664e-01
1.520825372564004463e-01
1.520825372564004463e-01
1.520825372564004463e-01
1.520825372564004463e-01
1.520825372564004463e-01
1.238058846006878100e-01
1.238058846006878100e-01
1.238058846006878100e-01
1.272449369507069050e-01
1.272449369507069050e-01
1.322124570118456133e-01
1.322124570118456133e-01
1.322124570118456133e-01
1.287734046618265182e-01
1.287734046618265182e-01
1.253343523118074232e-01
1.253343523118074232e-01
1.253343523118074232e-01
1.398547955674436516e-01
1.398547955674436516e-01
1.253343523118074232e-01
1.253343523118074232e-01
1.253343523118074232e-01
1.226595338173481070e-01
1.226595338173481070e-01
1.322124570118456133e-01
1.322124570118456133e-01
1.322124570118456133e-01
1.364157432174245288e-01
1.364157432174245288e-01
1.299197554451662073e-01
1.299197554451662073e-01
1.299197554451662073e-01
1.299197554451662073e-01
1.299197554451662073e-01
1.272449369507069050e-01
1.272449369507069050e-01
1.272449369507069050e-01
1.436759648452426430e-01
1.436759648452426430e-01
1.482613679786014549e-01
1.482613679786014549e-01
1.482613679786014549e-01
1.597248758119984846e-01
1.597248758119984846e-01
1.226595338173481070e-01
1.226595338173481070e-01
1.226595338173481070e-01
1.570500573175391545e-01
1.570500573175391545e-01
1.268628200229270087e-01
1.268628200229270087e-01
1.268628200229270087e-01
1.578142911730989750e-01
1.578142911730989750e-01
1.207489491784486113e-01
1.207489491784486113e-01
1.207489491784486113e-01
1.211310661062285077e-01
1.211310661062285077e-01
1.356515093618647361e-01
1.356515093618647361e-01
1.356515093618647361e-01
1.245701184562476166e-01
1.245701184562476166e-01
1.199847153228888047e-01
1.199847153228888047e-01
1.199847153228888047e-01
1.436759648452426430e-01
1.436759648452426430e-01
1.176920137562093988e-01
1.176920137562093988e-01
1.176920137562093988e-01
1.291555215896064146e-01
1.291555215896064146e-01
1.199847153228888047e-01
1.199847153228888047e-01
1.199847153228888047e-01
1.188383645395491017e-01
1.188383645395491017e-01
1.173098968284295024e-01
1.173098968284295024e-01
1.173098968284295024e-01
1.532288880397401631e-01
1.532288880397401631e-01
1.180741306839892951e-01
1.180741306839892951e-01
1.203668322506687011e-01
1.203668322506687011e-01
1.203668322506687011e-01
1.379442109285441420e-01
1.379442109285441420e-01
1.348872755063049156e-01
1.348872755063049156e-01
1.348872755063049156e-01
1.348872755063049156e-01
1.348872755063049156e-01
1.497898356897210681e-01
1.497898356897210681e-01
1.497898356897210681e-01
1.410011463507833407e-01
1.410011463507833407e-01
1.257164692395873196e-01
1.257164692395873196e-01
1.257164692395873196e-01
1.241880015284677063e-01
1.241880015284677063e-01
1.207489491784486113e-01
1.207489491784486113e-01
1.207489491784486113e-01
1.406190294230034443e-01
1.406190294230034443e-01
1.417653802063431334e-01
1.417653802063431334e-01
1.417653802063431334e-01
1.360336262896446324e-01
1.360336262896446324e-01
1.536110049675200595e-01
1.536110049675200595e-01
1.536110049675200595e-01
1.364157432174245288e-01
1.364157432174245288e-01
1.234237676729079136e-01
1.234237676729079136e-01
1.234237676729079136e-01
1.394726786396637275e-01
1.394726786396637275e-01
1.455865494841421526e-01
1.455865494841421526e-01
1.455865494841421526e-01
1.184562476117692054e-01
1.184562476117692054e-01
1.184562476117692054e-01
1.184562476117692054e-01
1.184562476117692054e-01
1.578142911730989750e-01
1.578142911730989750e-01
1.413832632785632371e-01
1.413832632785632371e-01
1.413832632785632371e-01
1.283912877340466219e-01
1.283912877340466219e-01
1.222774168895682106e-01
1.222774168895682106e-01
1.222774168895682106e-01
1.345051585785250192e-01
1.345051585785250192e-01
1.238058846006878100e-01
1.238058846006878100e-01
1.238058846006878100e-01
1.436759648452426430e-01
1.436759648452426430e-01
1.581964081008788714e-01
1.581964081008788714e-01
1.581964081008788714e-01
1.394726786396637275e-01
1.394726786396637275e-01
1.413832632785632371e-01
1.413832632785632371e-01
1.413832632785632371e-01
1.566679403897592582e-01
1.566679403897592582e-01
1.685135651509361843e-01
1.685135651509361843e-01
1.685135651509361843e-01
1.753916698509744021e-01
1.753916698509744021e-01
1.746274359954146094e-01
1.746274359954146094e-01
1.746274359954146094e-01
1.688956820787160806e-01
1.688956820787160806e-01
1.925869316010699328e-01
1.925869316010699328e-01
1.925869316010699328e-01
1.723347344287352034e-01
1.723347344287352034e-01
1.792128391287733935e-01
1.792128391287733935e-01
1.792128391287733935e-01
2.113106610622850490e-01
2.113106610622850490e-01
2.315628582346198061e-01
2.315628582346198061e-01
2.315628582346198061e-01
2.094000764233855671e-01
2.094000764233855671e-01
2.185708826901031632e-01
2.185708826901031632e-01
2.185708826901031632e-01
2.323270920901795988e-01
2.323270920901795988e-01
2.667176155903706603e-01
2.667176155903706603e-01
2.667176155903706603e-01
2.732136033626289540e-01
2.732136033626289540e-01
2.770347726404279731e-01
2.770347726404279731e-01
2.770347726404279731e-01
2.670997325181505566e-01
2.670997325181505566e-01
3.030187237294612035e-01
3.030187237294612035e-01
3.030187237294612035e-01
2.999617883072220326e-01
2.999617883072220326e-01
2.961406190294230134e-01
2.961406190294230134e-01
2.961406190294230134e-01
3.213603362628964510e-01
3.213603362628964510e-01
3.244172716851356775e-01
3.244172716851356775e-01
3.244172716851356775e-01
3.141001146350783091e-01
3.141001146350783091e-01
3.530760412686281824e-01
3.530760412686281824e-01
3.530760412686281824e-01
3.683607183798242035e-01
3.683607183798242035e-01
3.584256782575467870e-01
3.584256782575467870e-01
3.584256782575467870e-01
3.557508597630875125e-01
3.557508597630875125e-01
3.603362628964463243e-01
3.603362628964463243e-01
3.603362628964463243e-01
3.668322506687046181e-01
3.668322506687046181e-01
3.664501337409247217e-01
3.664501337409247217e-01
3.664501337409247217e-01
3.706534199465036372e-01
3.706534199465036372e-01
4.019870080244554722e-01
4.019870080244554722e-01
4.019870080244554722e-01
3.817348108521207428e-01
3.817348108521207428e-01
3.931983186855177448e-01
3.931983186855177448e-01
3.931983186855177448e-01
4.287351929690485508e-01
4.287351929690485508e-01
4.153611004967520115e-01
4.153611004967520115e-01
4.153611004967520115e-01
3.981658387466564530e-01
3.981658387466564530e-01
4.081008788689338695e-01
4.081008788689338695e-01
4.081008788689338695e-01
4.363775315246465336e-01
4.363775315246465336e-01
4.069545280855941805e-01
4.069545280855941805e-01
4.069545280855941805e-01
4.237676729079098426e-01
4.237676729079098426e-01
4.455483377913641574e-01
4.455483377913641574e-01
4.455483377913641574e-01
4.210928544134505125e-01
4.210928544134505125e-01
4.444019870080244683e-01
4.444019870080244683e-01
4.444019870080244683e-01
4.524264424914023475e-01
4.524264424914023475e-01
4.256782575468093244e-01
4.256782575468093244e-01
4.256782575468093244e-01
4.520443255636224511e-01
4.520443255636224511e-01
4.287351929690485508e-01
4.287351929690485508e-01
4.287351929690485508e-01
4.463125716469239501e-01
4.463125716469239501e-01
4.256782575468093244e-01
4.256782575468093244e-01
4.256782575468093244e-01
4.436377531524646756e-01
4.436377531524646756e-01
4.608330149025601785e-01
4.608330149025601785e-01
4.608330149025601785e-01
4.428735192969048273e-01
4.428735192969048273e-01
4.291173098968284472e-01
4.291173098968284472e-01
4.493695070691631765e-01
4.493695070691631765e-01
4.493695070691631765e-01
4.291173098968284472e-01
4.291173098968284472e-01
4.631257164692396122e-01
4.631257164692396122e-01
4.631257164692396122e-01
4.638899503247994049e-01
4.638899503247994049e-01
4.501337409247229693e-01
4.501337409247229693e-01
4.501337409247229693e-01
4.558654948414214703e-01
4.558654948414214703e-01
4.486052732136033838e-01
4.486052732136033838e-01
4.486052732136033838e-01
4.260603744745892207e-01
4.260603744745892207e-01
4.413450515857852419e-01
4.413450515857852419e-01
4.413450515857852419e-01
4.233855559801299462e-01
4.233855559801299462e-01
4.191822697745510307e-01
4.191822697745510307e-01
4.191822697745510307e-01
4.283530760412686544e-01
4.283530760412686544e-01
4.272067252579289098e-01
4.272067252579289098e-01
4.272067252579289098e-01
4.287351929690485508e-01
4.287351929690485508e-01
4.482231562858234875e-01
4.482231562858234875e-01
4.482231562858234875e-01
4.401987008024455528e-01
4.401987008024455528e-01
4.256782575468093244e-01
4.256782575468093244e-01
4.256782575468093244e-01
4.077187619411539732e-01
4.077187619411539732e-01
3.974016048910966603e-01
3.974016048910966603e-01
3.974016048910966603e-01
4.073366450133740768e-01
4.073366450133740768e-01
4.123041650745127851e-01
4.123041650745127851e-01
4.123041650745127851e-01
4.107756973633931996e-01
4.107756973633931996e-01
3.947267863966373858e-01
3.947267863966373858e-01
3.947267863966373858e-01
4.054260603744745950e-01
4.054260603744745950e-01
3.832632785632403283e-01
3.832632785632403283e-01
3.832632785632403283e-01
4.138326327856324260e-01
4.138326327856324260e-01
4.073366450133740768e-01
4.073366450133740768e-01
4.073366450133740768e-01
3.832632785632403283e-01
3.832632785632403283e-01
3.672143675964845144e-01
3.672143675964845144e-01
3.672143675964845144e-01
3.847917462743599692e-01
3.847917462743599692e-01
3.924340848299579521e-01
3.924340848299579521e-01
3.924340848299579521e-01
3.760030569354222418e-01
3.760030569354222418e-01
3.832632785632403283e-01
3.832632785632403283e-01
3.832632785632403283e-01
3.637753152464653916e-01
3.637753152464653916e-01
3.802063431410011574e-01
3.802063431410011574e-01
3.802063431410011574e-01
3.515475735575085969e-01
3.515475735575085969e-01
3.408482995796713877e-01
3.408482995796713877e-01
3.408482995796713877e-01
3.687428353076040999e-01
3.687428353076040999e-01
3.312953763851738676e-01
3.312953763851738676e-01
3.312953763851738676e-01
3.247993886129155738e-01
3.247993886129155738e-01
3.274742071073748484e-01
3.274742071073748484e-01
3.274742071073748484e-01
3.526939243408482860e-01
3.526939243408482860e-01
3.251815055406954702e-01
3.251815055406954702e-01
3.251815055406954702e-01
3.389377149407718504e-01
3.389377149407718504e-01
3.079862437905999117e-01
3.079862437905999117e-01
3.079862437905999117e-01
2.965227359572029098e-01
2.965227359572029098e-01
3.068398930072602226e-01
3.068398930072602226e-01
3.068398930072602226e-01
2.995796713794421362e-01
2.995796713794421362e-01
3.160106992739778464e-01
3.160106992739778464e-01
3.160106992739778464e-01
2.793274742071073513e-01
2.793274742071073513e-01
3.114252961406190345e-01
3.114252961406190345e-01
3.114252961406190345e-01
2.877340466182651824e-01
2.877340466182651824e-01
2.697745510126098312e-01
2.697745510126098312e-01
2.697745510126098312e-01
2.907909820405044088e-01
2.907909820405044088e-01
2.648070309514711229e-01
2.648070309514711229e-01
2.648070309514711229e-01
2.942300343905234761e-01
2.942300343905234761e-01
2.697745510126098312e-01
2.697745510126098312e-01
