2.101643102789453599e-01
2.101643102789453599e-01
2.009935040122277361e-01
2.009935040122277361e-01
2.009935040122277361e-01
1.979365685899885374e-01
1.979365685899885374e-01
1.948796331677493388e-01
1.948796331677493388e-01
1.948796331677493388e-01
2.105464272067252562e-01
2.105464272067252562e-01
2.051967902178066516e-01
2.051967902178066516e-01
2.051967902178066516e-01
2.055789071455865480e-01
2.055789071455865480e-01
2.048146732900267553e-01
2.048146732900267553e-01
2.048146732900267553e-01
2.151318303400840681e-01
2.151318303400840681e-01
2.044325563622468589e-01
2.044325563622468589e-01
2.044325563622468589e-01
1.964081008788689242e-01
1.964081008788689242e-01
2.029040886511272457e-01
2.029040886511272457e-01
2.029040886511272457e-01
1.925869316010699328e-01
1.925869316010699328e-01
1.944975162399694424e-01
1.944975162399694424e-01
1.944975162399694424e-01
1.994650363011081506e-01
1.994650363011081506e-01
1.948796331677493388e-01
1.948796331677493388e-01
1.948796331677493388e-01
1.979365685899885374e-01
1.979365685899885374e-01
1.937332823844096219e-01
1.937332823844096219e-01
1.937332823844096219e-01
1.925869316010699328e-01
1.925869316010699328e-01
1.960259839510890278e-01
1.960259839510890278e-01
1.960259839510890278e-01
1.994650363011081506e-01
1.994650363011081506e-01
2.017577378677875566e-01
2.017577378677875566e-01
2.017577378677875566e-01
1.948796331677493388e-01
1.948796331677493388e-01
1.860909438288116113e-01
1.860909438288116113e-01
1.860909438288116113e-01
2.051967902178066516e-01
2.051967902178066516e-01
1.860909438288116113e-01
1.860909438288116113e-01
1.860909438288116113e-01
1.975544516622086411e-01
1.975544516622086411e-01
1.868551776843714041e-01
1.868551776843714041e-01
1.868551776843714041e-01
1.983186855177684338e-01
1.983186855177684338e-01
1.944975162399694424e-01
1.944975162399694424e-01
1.944975162399694424e-01
1.990829193733282265e-01
1.990829193733282265e-01
1.975544516622086411e-01
1.975544516622086411e-01
1.868551776843714041e-01
1.868551776843714041e-01
1.868551776843714041e-01
1.929690485288498292e-01
1.929690485288498292e-01
1.925869316010699328e-01
1.925869316010699328e-01
1.925869316010699328e-01
2.025219717233473493e-01
2.025219717233473493e-01
1.994650363011081506e-01
1.994650363011081506e-01
1.994650363011081506e-01
1.929690485288498292e-01
1.929690485288498292e-01
1.987008024455483302e-01
1.987008024455483302e-01
1.987008024455483302e-01
1.818876576232326958e-01
1.818876576232326958e-01
1.929690485288498292e-01
1.929690485288498292e-01
1.929690485288498292e-01
1.815055406954527994e-01
1.815055406954527994e-01
1.834161253343523090e-01
1.834161253343523090e-01
1.834161253343523090e-01
1.830340084065724127e-01
1.830340084065724127e-01
1.864730607565915077e-01
1.864730607565915077e-01
1.864730607565915077e-01
1.944975162399694424e-01
1.944975162399694424e-01
1.914405808177302160e-01
1.914405808177302160e-01
1.914405808177302160e-01
1.780664883454337044e-01
1.780664883454337044e-01
1.952617500955292351e-01
1.952617500955292351e-01
1.952617500955292351e-01
1.837982422621322054e-01
1.837982422621322054e-01
1.837982422621322054e-01
1.837982422621322054e-01
1.837982422621322054e-01
1.864730607565915077e-01
1.864730607565915077e-01
1.826518914787925163e-01
1.826518914787925163e-01
1.826518914787925163e-01
1.715705005731753829e-01
1.715705005731753829e-01
1.837982422621322054e-01
1.837982422621322054e-01
1.837982422621322054e-01
1.780664883454337044e-01
1.780664883454337044e-01
1.849445930454719222e-01
1.849445930454719222e-01
1.849445930454719222e-01
1.837982422621322054e-01
1.837982422621322054e-01
1.818876576232326958e-01
1.818876576232326958e-01
1.818876576232326958e-01
1.727168513565150998e-01
1.727168513565150998e-01
1.822697745510126199e-01
1.822697745510126199e-01
1.822697745510126199e-01
1.723347344287352034e-01
1.723347344287352034e-01
1.719526175009552793e-01
1.719526175009552793e-01
1.719526175009552793e-01
1.826518914787925163e-01
1.826518914787925163e-01
1.784486052732136008e-01
1.784486052732136008e-01
1.784486052732136008e-01
1.845624761176920259e-01
1.845624761176920259e-01
1.826518914787925163e-01
1.826518914787925163e-01
1.826518914787925163e-01
1.715705005731753829e-01
1.715705005731753829e-01
1.708062667176155902e-01
1.708062667176155902e-01
1.708062667176155902e-01
1.746274359954146094e-01
1.746274359954146094e-01
1.746274359954146094e-01
1.746274359954146094e-01
1.746274359954146094e-01
1.818876576232326958e-01
1.818876576232326958e-01
1.757737867787542985e-01
1.757737867787542985e-01
1.757737867787542985e-01
1.669850974398165711e-01
1.669850974398165711e-01
1.853267099732518186e-01
1.853267099732518186e-01
1.853267099732518186e-01
1.757737867787542985e-01
1.757737867787542985e-01
1.765380206343140912e-01
1.765380206343140912e-01
1.765380206343140912e-01
1.895299961788307341e-01
1.895299961788307341e-01
1.669850974398165711e-01
1.669850974398165711e-01
1.669850974398165711e-01
1.849445930454719222e-01
1.849445930454719222e-01
1.742453190676346853e-01
1.742453190676346853e-01
1.742453190676346853e-01
1.872372946121513282e-01
1.872372946121513282e-01
1.765380206343140912e-01
1.765380206343140912e-01
1.765380206343140912e-01
1.761559037065341948e-01
1.761559037065341948e-01
1.734810852120748925e-01
1.734810852120748925e-01
1.734810852120748925e-01
1.857088269010317150e-01
1.857088269010317150e-01
1.815055406954527994e-01
1.815055406954527994e-01
1.815055406954527994e-01
1.780664883454337044e-01
1.780664883454337044e-01
1.753916698509744021e-01
1.753916698509744021e-01
1.753916698509744021e-01
1.826518914787925163e-01
1.826518914787925163e-01
1.807413068398930067e-01
1.807413068398930067e-01
1.807413068398930067e-01
1.742453190676346853e-01
1.742453190676346853e-01
1.807413068398930067e-01
1.807413068398930067e-01
1.807413068398930067e-01
1.688956820787160806e-01
1.688956820787160806e-01
1.738632021398547889e-01
1.738632021398547889e-01
1.738632021398547889e-01
1.826518914787925163e-01
1.826518914787925163e-01
1.849445930454719222e-01
1.849445930454719222e-01
1.849445930454719222e-01
1.688956820787160806e-01
1.688956820787160806e-01
1.792128391287733935e-01
1.792128391287733935e-01
1.792128391287733935e-01
1.765380206343140912e-01
1.765380206343140912e-01
1.818876576232326958e-01
1.818876576232326958e-01
1.818876576232326958e-01
1.715705005731753829e-01
1.715705005731753829e-01
1.765380206343140912e-01
1.765380206343140912e-01
1.765380206343140912e-01
1.643102789453572687e-01
1.643102789453572687e-01
1.776843714176538080e-01
1.776843714176538080e-01
1.776843714176538080e-01
1.715705005731753829e-01
1.715705005731753829e-01
1.788307222009934971e-01
1.788307222009934971e-01
1.788307222009934971e-01
1.719526175009552793e-01
1.719526175009552793e-01
1.849445930454719222e-01
1.849445930454719222e-01
1.849445930454719222e-01
1.746274359954146094e-01
1.746274359954146094e-01
1.853267099732518186e-01
1.853267099732518186e-01
1.853267099732518186e-01
1.715705005731753829e-01
1.715705005731753829e-01
1.849445930454719222e-01
1.849445930454719222e-01
1.849445930454719222e-01
1.799770729843332140e-01
1.799770729843332140e-01
1.837982422621322054e-01
1.837982422621322054e-01
1.688956820787160806e-01
1.688956820787160806e-01
1.688956820787160806e-01
1.746274359954146094e-01
1.746274359954146094e-01
1.727168513565150998e-01
1.727168513565150998e-01
1.727168513565150998e-01
1.849445930454719222e-01
1.849445930454719222e-01
1.765380206343140912e-01
1.765380206343140912e-01
1.765380206343140912e-01
1.788307222009934971e-01
1.788307222009934971e-01
1.776843714176538080e-01
1.776843714176538080e-01
1.776843714176538080e-01
1.723347344287352034e-01
1.723347344287352034e-01
1.776843714176538080e-01
1.776843714176538080e-01
1.776843714176538080e-01
1.880015284677111209e-01
1.880015284677111209e-01
1.837982422621322054e-01
1.837982422621322054e-01
1.837982422621322054e-01
1.841803591899121018e-01
1.841803591899121018e-01
1.837982422621322054e-01
1.837982422621322054e-01
1.837982422621322054e-01
1.780664883454337044e-01
1.780664883454337044e-01
1.692777990064959770e-01
1.692777990064959770e-01
1.692777990064959770e-01
1.727168513565150998e-01
1.727168513565150998e-01
1.792128391287733935e-01
1.792128391287733935e-01
1.792128391287733935e-01
1.776843714176538080e-01
1.776843714176538080e-01
1.811234237676729031e-01
1.811234237676729031e-01
1.811234237676729031e-01
1.807413068398930067e-01
1.807413068398930067e-01
1.815055406954527994e-01
1.815055406954527994e-01
1.815055406954527994e-01
1.803591899121131104e-01
1.803591899121131104e-01
1.837982422621322054e-01
1.837982422621322054e-01
1.837982422621322054e-01
1.799770729843332140e-01
1.799770729843332140e-01
1.902942300343905269e-01
1.902942300343905269e-01
1.902942300343905269e-01
1.795949560565533176e-01
1.795949560565533176e-01
1.795949560565533176e-01
1.795949560565533176e-01
1.795949560565533176e-01
1.918226977455101123e-01
1.918226977455101123e-01
1.837982422621322054e-01
1.837982422621322054e-01
1.837982422621322054e-01
1.780664883454337044e-01
1.780664883454337044e-01
1.776843714176538080e-01
1.776843714176538080e-01
1.776843714176538080e-01
1.822697745510126199e-01
1.822697745510126199e-01
1.822697745510126199e-01
1.822697745510126199e-01
1.822697745510126199e-01
1.857088269010317150e-01
1.857088269010317150e-01
1.773022544898739117e-01
1.773022544898739117e-01
1.773022544898739117e-01
1.876194115399312246e-01
1.876194115399312246e-01
1.837982422621322054e-01
1.837982422621322054e-01
1.837982422621322054e-01
1.776843714176538080e-01
1.776843714176538080e-01
1.773022544898739117e-01
1.773022544898739117e-01
1.773022544898739117e-01
1.837982422621322054e-01
1.837982422621322054e-01
1.765380206343140912e-01
1.765380206343140912e-01
1.765380206343140912e-01
1.849445930454719222e-01
1.849445930454719222e-01
1.899121131066106305e-01
1.899121131066106305e-01
1.899121131066106305e-01
1.899121131066106305e-01
1.899121131066106305e-01
1.872372946121513282e-01
1.872372946121513282e-01
1.872372946121513282e-01
1.799770729843332140e-01
1.799770729843332140e-01
1.868551776843714041e-01
1.868551776843714041e-01
1.868551776843714041e-01
1.811234237676729031e-01
1.811234237676729031e-01
1.826518914787925163e-01
1.826518914787925163e-01
1.826518914787925163e-01
1.902942300343905269e-01
1.902942300343905269e-01
1.818876576232326958e-01
1.818876576232326958e-01
1.818876576232326958e-01
1.807413068398930067e-01
1.807413068398930067e-01
1.872372946121513282e-01
1.872372946121513282e-01
1.872372946121513282e-01
1.899121131066106305e-01
1.899121131066106305e-01
1.933511654566297255e-01
1.933511654566297255e-01
1.933511654566297255e-01
1.876194115399312246e-01
1.876194115399312246e-01
1.849445930454719222e-01
1.849445930454719222e-01
1.849445930454719222e-01
1.948796331677493388e-01
1.948796331677493388e-01
1.922048146732900364e-01
1.922048146732900364e-01
1.922048146732900364e-01
1.853267099732518186e-01
1.853267099732518186e-01
2.025219717233473493e-01
2.025219717233473493e-01
2.025219717233473493e-01
1.937332823844096219e-01
1.937332823844096219e-01
1.956438670233091315e-01
1.956438670233091315e-01
1.956438670233091315e-01
2.021398547955674529e-01
2.021398547955674529e-01
2.021398547955674529e-01
2.021398547955674529e-01
2.021398547955674529e-01
2.032862055789071420e-01
2.032862055789071420e-01
2.071073748567061612e-01
2.071073748567061612e-01
2.071073748567061612e-01
2.239205196790217678e-01
2.239205196790217678e-01
2.166602980512036813e-01
2.166602980512036813e-01
2.166602980512036813e-01
2.204814673290026728e-01
2.204814673290026728e-01
2.220099350401222860e-01
2.220099350401222860e-01
2.220099350401222860e-01
2.311807413068398820e-01
2.311807413068398820e-01
2.372946121513183071e-01
2.372946121513183071e-01
2.372946121513183071e-01
2.506687046236148464e-01
2.506687046236148464e-01
2.388230798624378926e-01
2.388230798624378926e-01
2.388230798624378926e-01
2.445548337791364213e-01
2.445548337791364213e-01
2.567825754680932437e-01
2.567825754680932437e-01
2.567825754680932437e-01
2.586931601069927256e-01
2.586931601069927256e-01
2.628964463125716411e-01
2.628964463125716411e-01
2.628964463125716411e-01
2.590752770347726219e-01
2.590752770347726219e-01
2.808559419182269923e-01
2.808559419182269923e-01
2.789453572793274549e-01
2.789453572793274549e-01
2.789453572793274549e-01
2.896446312571647197e-01
2.896446312571647197e-01
2.854413450515858042e-01
2.854413450515858042e-01
2.854413450515858042e-01
2.938479174627435797e-01
2.938479174627435797e-01
2.946121513183034279e-01
2.946121513183034279e-01
2.946121513183034279e-01
2.957585021016431170e-01
2.957585021016431170e-01
3.068398930072602226e-01
3.068398930072602226e-01
3.068398930072602226e-01
2.984333205961023916e-01
2.984333205961023916e-01
3.003439052350019289e-01
3.003439052350019289e-01
3.003439052350019289e-01
3.014902560183416180e-01
3.014902560183416180e-01
3.076041268628200154e-01
3.076041268628200154e-01
3.076041268628200154e-01
3.068398930072602226e-01
3.068398930072602226e-01
3.068398930072602226e-01
3.068398930072602226e-01
3.068398930072602226e-01
3.198318685517768656e-01
3.198318685517768656e-01
3.125716469239587236e-01
3.125716469239587236e-01
3.125716469239587236e-01
3.148643484906381573e-01
3.148643484906381573e-01
3.198318685517768656e-01
3.198318685517768656e-01
3.198318685517768656e-01
3.183034008406572246e-01
3.183034008406572246e-01
3.247993886129155738e-01
3.247993886129155738e-01
3.247993886129155738e-01
3.225066870462361401e-01
3.225066870462361401e-01
3.202139854795567619e-01
3.202139854795567619e-01
3.202139854795567619e-01
3.213603362628964510e-01
3.213603362628964510e-01
3.167749331295376392e-01
3.167749331295376392e-01
3.167749331295376392e-01
3.213603362628964510e-01
3.213603362628964510e-01
3.183034008406572246e-01
3.183034008406572246e-01
3.183034008406572246e-01
3.186855177684371210e-01
3.186855177684371210e-01
3.202139854795567619e-01
3.202139854795567619e-01
3.202139854795567619e-01
3.171570500573175355e-01
3.171570500573175355e-01
3.320596102407336603e-01
3.320596102407336603e-01
3.320596102407336603e-01
3.213603362628964510e-01
3.213603362628964510e-01
3.228888039740160365e-01
3.228888039740160365e-01
3.228888039740160365e-01
3.217424531906763474e-01
3.217424531906763474e-01
3.267099732518150557e-01
3.267099732518150557e-01
3.267099732518150557e-01
3.278563240351547448e-01
3.278563240351547448e-01
3.186855177684371210e-01
3.186855177684371210e-01
3.186855177684371210e-01
3.183034008406572246e-01
3.183034008406572246e-01
3.343523118074130940e-01
3.343523118074130940e-01
3.343523118074130940e-01
3.209782193351165547e-01
3.209782193351165547e-01
3.270920901795949520e-01
3.270920901795949520e-01
3.270920901795949520e-01
3.198318685517768656e-01
3.198318685517768656e-01
3.186855177684371210e-01
3.186855177684371210e-01
3.186855177684371210e-01
3.225066870462361401e-01
3.225066870462361401e-01
3.209782193351165547e-01
3.209782193351165547e-01
3.209782193351165547e-01
3.194497516239969692e-01
3.194497516239969692e-01
3.335880779518532457e-01
3.335880779518532457e-01
3.335880779518532457e-01
3.236530378295758292e-01
3.236530378295758292e-01
3.228888039740160365e-01
3.228888039740160365e-01
3.228888039740160365e-01
3.244172716851356775e-01
3.244172716851356775e-01
3.156285823461979501e-01
3.156285823461979501e-01
3.156285823461979501e-01
3.270920901795949520e-01
3.270920901795949520e-01
3.228888039740160365e-01
3.228888039740160365e-01
3.228888039740160365e-01
3.217424531906763474e-01
3.217424531906763474e-01
3.194497516239969692e-01
3.194497516239969692e-01
3.194497516239969692e-01
3.217424531906763474e-01
3.217424531906763474e-01
3.163928162017577428e-01
3.163928162017577428e-01
3.163928162017577428e-01
3.171570500573175355e-01
3.171570500573175355e-01
3.202139854795567619e-01
3.202139854795567619e-01
3.202139854795567619e-01
3.121895299961788273e-01
3.121895299961788273e-01
3.171570500573175355e-01
3.171570500573175355e-01
3.171570500573175355e-01
3.049293083683607408e-01
3.049293083683607408e-01
3.163928162017577428e-01
3.163928162017577428e-01
3.163928162017577428e-01
3.183034008406572246e-01
3.183034008406572246e-01
3.114252961406190345e-01
3.114252961406190345e-01
3.114252961406190345e-01
3.179212839128773282e-01
3.179212839128773282e-01
3.091325945739396008e-01
3.091325945739396008e-01
3.091325945739396008e-01
3.186855177684371210e-01
3.186855177684371210e-01
3.007260221627818253e-01
3.007260221627818253e-01
3.007260221627818253e-01
3.129537638517386200e-01
3.129537638517386200e-01
3.106610622850592418e-01
3.106610622850592418e-01
3.106610622850592418e-01
3.053114252961406372e-01
3.053114252961406372e-01
3.053114252961406372e-01
3.053114252961406372e-01
3.053114252961406372e-01
2.961406190294230134e-01
2.961406190294230134e-01
3.003439052350019289e-01
3.003439052350019289e-01
3.003439052350019289e-01
3.091325945739396008e-01
3.091325945739396008e-01
2.953763851738632207e-01
2.953763851738632207e-01
2.953763851738632207e-01
2.888803974016048715e-01
2.888803974016048715e-01
2.972869698127627025e-01
2.972869698127627025e-01
2.972869698127627025e-01
2.991975544516621843e-01
2.991975544516621843e-01
2.873519296904852860e-01
2.873519296904852860e-01
2.873519296904852860e-01
2.884982804738249751e-01
2.884982804738249751e-01
2.965227359572029098e-01
2.965227359572029098e-01
2.965227359572029098e-01
2.896446312571647197e-01
2.896446312571647197e-01
2.770347726404279731e-01
2.770347726404279731e-01
2.846771111960260114e-01
2.846771111960260114e-01
2.846771111960260114e-01
2.728314864348490576e-01
2.728314864348490576e-01
2.697745510126098312e-01
2.697745510126098312e-01
2.697745510126098312e-01
2.659533817348108675e-01
2.659533817348108675e-01
2.774168895682078695e-01
2.774168895682078695e-01
2.774168895682078695e-01
2.705387848681696794e-01
2.705387848681696794e-01
2.713030187237294721e-01
2.713030187237294721e-01
2.713030187237294721e-01
2.678639663737103493e-01
2.678639663737103493e-01
2.636606801681314338e-01
2.636606801681314338e-01
2.636606801681314338e-01
2.732136033626289540e-01
2.732136033626289540e-01
2.544898739014138100e-01
2.544898739014138100e-01
2.544898739014138100e-01
2.636606801681314338e-01
2.636606801681314338e-01
2.579289262514329328e-01
2.579289262514329328e-01
2.579289262514329328e-01
2.529614061902942246e-01
2.529614061902942246e-01
2.514329384791746391e-01
2.514329384791746391e-01
2.514329384791746391e-01
2.548719908291937064e-01
2.548719908291937064e-01
2.506687046236148464e-01
2.506687046236148464e-01
2.506687046236148464e-01
2.449369507069163177e-01
2.449369507069163177e-01
2.499044707680550259e-01
2.499044707680550259e-01
2.499044707680550259e-01
2.342376767290791084e-01
2.342376767290791084e-01
2.300343905235001929e-01
2.300343905235001929e-01
2.300343905235001929e-01
2.411157814291172985e-01
2.411157814291172985e-01
2.239205196790217678e-01
2.239205196790217678e-01
2.239205196790217678e-01
2.243026366068016919e-01
2.243026366068016919e-01
2.227741688956820787e-01
2.227741688956820787e-01
2.227741688956820787e-01
2.330913259457393916e-01
2.330913259457393916e-01
2.330913259457393916e-01
2.330913259457393916e-01
2.330913259457393916e-01
2.197172334734428800e-01
2.197172334734428800e-01
2.185708826901031632e-01
2.185708826901031632e-01
2.185708826901031632e-01
2.296522735957202965e-01
2.296522735957202965e-01
2.189529996178830595e-01
2.189529996178830595e-01
2.189529996178830595e-01
2.151318303400840681e-01
2.151318303400840681e-01
2.128391287734046622e-01
2.128391287734046622e-01
2.128391287734046622e-01
2.078716087122659539e-01
2.078716087122659539e-01
2.185708826901031632e-01
2.185708826901031632e-01
2.185708826901031632e-01
2.158960641956438609e-01
2.158960641956438609e-01
2.185708826901031632e-01
2.185708826901031632e-01
2.185708826901031632e-01
2.074894917844860576e-01
2.074894917844860576e-01
2.044325563622468589e-01
2.044325563622468589e-01
2.044325563622468589e-01
2.162781811234237572e-01
2.162781811234237572e-01
2.189529996178830595e-01
2.189529996178830595e-01
2.189529996178830595e-01
2.166602980512036813e-01
2.166602980512036813e-01
2.006113870844478397e-01
2.006113870844478397e-01
2.006113870844478397e-01
2.059610240733664444e-01
2.059610240733664444e-01
2.074894917844860576e-01
2.074894917844860576e-01
2.074894917844860576e-01
2.078716087122659539e-01
2.078716087122659539e-01
2.101643102789453599e-01
2.101643102789453599e-01
2.101643102789453599e-01
2.029040886511272457e-01
2.029040886511272457e-01
1.994650363011081506e-01
1.994650363011081506e-01
1.994650363011081506e-01
1.956438670233091315e-01
1.956438670233091315e-01
1.998471532288880470e-01
1.998471532288880470e-01
1.998471532288880470e-01
1.990829193733282265e-01
1.990829193733282265e-01
2.090179594956056430e-01
2.090179594956056430e-01
2.090179594956056430e-01
2.113106610622850490e-01
2.113106610622850490e-01
1.998471532288880470e-01
1.998471532288880470e-01
1.998471532288880470e-01
2.002292701566679434e-01
2.002292701566679434e-01
2.002292701566679434e-01
2.002292701566679434e-01
2.002292701566679434e-01
1.964081008788689242e-01
1.964081008788689242e-01
1.971723347344287447e-01
1.971723347344287447e-01
1.971723347344287447e-01
1.971723347344287447e-01
1.971723347344287447e-01
2.044325563622468589e-01
2.044325563622468589e-01
2.044325563622468589e-01
2.017577378677875566e-01
2.017577378677875566e-01
2.021398547955674529e-01
2.021398547955674529e-01
2.021398547955674529e-01
1.960259839510890278e-01
1.960259839510890278e-01
2.074894917844860576e-01
2.074894917844860576e-01
2.074894917844860576e-01
1.998471532288880470e-01
1.998471532288880470e-01
2.040504394344669348e-01
2.040504394344669348e-01
2.040504394344669348e-01
1.944975162399694424e-01
1.944975162399694424e-01
2.032862055789071420e-01
2.032862055789071420e-01
2.032862055789071420e-01
2.032862055789071420e-01
2.032862055789071420e-01
2.017577378677875566e-01
2.017577378677875566e-01
2.017577378677875566e-01
1.964081008788689242e-01
1.964081008788689242e-01
1.868551776843714041e-01
1.868551776843714041e-01
1.868551776843714041e-01
1.929690485288498292e-01
1.929690485288498292e-01
1.918226977455101123e-01
1.918226977455101123e-01
1.918226977455101123e-01
2.032862055789071420e-01
2.032862055789071420e-01
1.964081008788689242e-01
1.964081008788689242e-01
1.964081008788689242e-01
1.925869316010699328e-01
1.925869316010699328e-01
1.910584638899503196e-01
1.910584638899503196e-01
1.910584638899503196e-01
1.994650363011081506e-01
1.994650363011081506e-01
2.036683225066870384e-01
2.036683225066870384e-01
1.895299961788307341e-01
1.895299961788307341e-01
1.895299961788307341e-01
1.944975162399694424e-01
1.944975162399694424e-01
1.918226977455101123e-01
1.918226977455101123e-01
1.918226977455101123e-01
1.960259839510890278e-01
1.960259839510890278e-01
1.891478792510508100e-01
1.891478792510508100e-01
1.891478792510508100e-01
1.857088269010317150e-01
1.857088269010317150e-01
2.044325563622468589e-01
2.044325563622468589e-01
2.044325563622468589e-01
1.857088269010317150e-01
1.857088269010317150e-01
1.864730607565915077e-01
1.864730607565915077e-01
1.864730607565915077e-01
1.857088269010317150e-01
1.857088269010317150e-01
1.868551776843714041e-01
1.868551776843714041e-01
1.868551776843714041e-01
1.902942300343905269e-01
1.902942300343905269e-01
1.902942300343905269e-01
1.902942300343905269e-01
1.902942300343905269e-01
1.837982422621322054e-01
1.837982422621322054e-01
1.925869316010699328e-01
1.925869316010699328e-01
1.925869316010699328e-01
1.914405808177302160e-01
1.914405808177302160e-01
1.837982422621322054e-01
1.837982422621322054e-01
1.837982422621322054e-01
1.849445930454719222e-01
1.849445930454719222e-01
1.841803591899121018e-01
1.841803591899121018e-01
1.841803591899121018e-01
1.914405808177302160e-01
1.914405808177302160e-01
1.994650363011081506e-01
1.994650363011081506e-01
1.994650363011081506e-01
1.857088269010317150e-01
1.857088269010317150e-01
1.792128391287733935e-01
1.792128391287733935e-01
1.792128391287733935e-01
1.906763469621704232e-01
1.906763469621704232e-01
1.826518914787925163e-01
1.826518914787925163e-01
1.826518914787925163e-01
1.738632021398547889e-01
1.738632021398547889e-01
1.746274359954146094e-01
1.746274359954146094e-01
1.746274359954146094e-01
1.876194115399312246e-01
1.876194115399312246e-01
1.914405808177302160e-01
1.914405808177302160e-01
1.914405808177302160e-01
1.837982422621322054e-01
1.837982422621322054e-01
1.857088269010317150e-01
1.857088269010317150e-01
1.857088269010317150e-01
1.723347344287352034e-01
1.723347344287352034e-01
1.925869316010699328e-01
1.925869316010699328e-01
1.925869316010699328e-01
1.841803591899121018e-01
1.841803591899121018e-01
1.837982422621322054e-01
1.837982422621322054e-01
1.837982422621322054e-01
1.834161253343523090e-01
1.834161253343523090e-01
1.734810852120748925e-01
1.734810852120748925e-01
1.734810852120748925e-01
1.853267099732518186e-01
1.853267099732518186e-01
1.811234237676729031e-01
1.811234237676729031e-01
1.811234237676729031e-01
1.815055406954527994e-01
1.815055406954527994e-01
1.837982422621322054e-01
1.837982422621322054e-01
1.837982422621322054e-01
1.746274359954146094e-01
1.746274359954146094e-01
1.757737867787542985e-01
1.757737867787542985e-01
1.757737867787542985e-01
1.750095529231945057e-01
1.750095529231945057e-01
1.761559037065341948e-01
1.761559037065341948e-01
1.761559037065341948e-01
1.822697745510126199e-01
1.822697745510126199e-01
1.742453190676346853e-01
1.742453190676346853e-01
1.742453190676346853e-01
1.708062667176155902e-01
1.708062667176155902e-01
1.723347344287352034e-01
1.723347344287352034e-01
1.723347344287352034e-01
1.880015284677111209e-01
1.880015284677111209e-01
1.738632021398547889e-01
1.738632021398547889e-01
1.738632021398547889e-01
1.738632021398547889e-01
1.738632021398547889e-01
1.834161253343523090e-01
1.834161253343523090e-01
1.834161253343523090e-01
1.799770729843332140e-01
1.799770729843332140e-01
1.692777990064959770e-01
1.692777990064959770e-01
1.692777990064959770e-01
1.662208635842567783e-01
1.662208635842567783e-01
1.708062667176155902e-01
1.708062667176155902e-01
1.708062667176155902e-01
1.807413068398930067e-01
1.807413068398930067e-01
1.746274359954146094e-01
1.746274359954146094e-01
1.746274359954146094e-01
1.685135651509361843e-01
1.685135651509361843e-01
1.761559037065341948e-01
1.761559037065341948e-01
1.761559037065341948e-01
1.811234237676729031e-01
1.811234237676729031e-01
1.753916698509744021e-01
1.753916698509744021e-01
1.753916698509744021e-01
1.711883836453954866e-01
1.711883836453954866e-01
1.757737867787542985e-01
1.757737867787542985e-01
1.757737867787542985e-01
1.696599159342759011e-01
1.696599159342759011e-01
1.815055406954527994e-01
1.815055406954527994e-01
1.815055406954527994e-01
1.826518914787925163e-01
1.826518914787925163e-01
1.788307222009934971e-01
1.788307222009934971e-01
1.788307222009934971e-01
1.803591899121131104e-01
1.803591899121131104e-01
1.727168513565150998e-01
1.727168513565150998e-01
1.727168513565150998e-01
1.765380206343140912e-01
1.765380206343140912e-01
1.872372946121513282e-01
1.872372946121513282e-01
1.872372946121513282e-01
1.727168513565150998e-01
1.727168513565150998e-01
1.730989682842949962e-01
1.730989682842949962e-01
1.730989682842949962e-01
1.795949560565533176e-01
1.795949560565533176e-01
1.872372946121513282e-01
1.872372946121513282e-01
1.872372946121513282e-01
1.845624761176920259e-01
1.845624761176920259e-01
1.792128391287733935e-01
1.792128391287733935e-01
1.792128391287733935e-01
1.776843714176538080e-01
1.776843714176538080e-01
1.837982422621322054e-01
1.837982422621322054e-01
1.811234237676729031e-01
1.811234237676729031e-01
1.811234237676729031e-01
1.780664883454337044e-01
1.780664883454337044e-01
1.822697745510126199e-01
1.822697745510126199e-01
1.822697745510126199e-01
1.864730607565915077e-01
1.864730607565915077e-01
1.738632021398547889e-01
1.738632021398547889e-01
1.738632021398547889e-01
1.704241497898356938e-01
1.704241497898356938e-01
1.788307222009934971e-01
1.788307222009934971e-01
1.788307222009934971e-01
1.723347344287352034e-01
1.723347344287352034e-01
1.738632021398547889e-01
1.738632021398547889e-01
1.738632021398547889e-01
1.757737867787542985e-01
1.757737867787542985e-01
1.803591899121131104e-01
1.803591899121131104e-01
1.803591899121131104e-01
1.849445930454719222e-01
1.849445930454719222e-01
1.776843714176538080e-01
1.776843714176538080e-01
1.776843714176538080e-01
1.757737867787542985e-01
1.757737867787542985e-01
1.727168513565150998e-01
1.727168513565150998e-01
1.727168513565150998e-01
1.742453190676346853e-01
1.742453190676346853e-01
1.922048146732900364e-01
1.922048146732900364e-01
1.922048146732900364e-01
1.711883836453954866e-01
1.711883836453954866e-01
1.711883836453954866e-01
1.711883836453954866e-01
1.711883836453954866e-01
1.765380206343140912e-01
1.765380206343140912e-01
1.807413068398930067e-01
1.807413068398930067e-01
1.807413068398930067e-01
1.708062667176155902e-01
1.708062667176155902e-01
1.822697745510126199e-01
1.822697745510126199e-01
1.822697745510126199e-01
1.799770729843332140e-01
1.799770729843332140e-01
1.811234237676729031e-01
1.811234237676729031e-01
1.811234237676729031e-01
1.715705005731753829e-01
1.715705005731753829e-01
1.727168513565150998e-01
1.727168513565150998e-01
1.727168513565150998e-01
1.922048146732900364e-01
1.922048146732900364e-01
1.868551776843714041e-01
1.868551776843714041e-01
1.868551776843714041e-01
1.788307222009934971e-01
1.788307222009934971e-01
1.872372946121513282e-01
1.872372946121513282e-01
1.872372946121513282e-01
1.757737867787542985e-01
1.757737867787542985e-01
1.883836453954910173e-01
1.883836453954910173e-01
1.883836453954910173e-01
1.746274359954146094e-01
1.746274359954146094e-01
1.883836453954910173e-01
1.883836453954910173e-01
1.883836453954910173e-01
1.776843714176538080e-01
1.776843714176538080e-01
1.910584638899503196e-01
1.910584638899503196e-01
1.910584638899503196e-01
1.849445930454719222e-01
1.849445930454719222e-01
1.914405808177302160e-01
1.914405808177302160e-01
1.914405808177302160e-01
1.780664883454337044e-01
1.780664883454337044e-01
1.826518914787925163e-01
1.826518914787925163e-01
1.826518914787925163e-01
1.837982422621322054e-01
1.837982422621322054e-01
1.765380206343140912e-01
1.765380206343140912e-01
1.765380206343140912e-01
1.765380206343140912e-01
1.765380206343140912e-01
1.902942300343905269e-01
1.902942300343905269e-01
1.902942300343905269e-01
1.773022544898739117e-01
1.773022544898739117e-01
1.780664883454337044e-01
1.780664883454337044e-01
1.780664883454337044e-01
1.815055406954527994e-01
1.815055406954527994e-01
1.883836453954910173e-01
1.883836453954910173e-01
1.883836453954910173e-01
1.883836453954910173e-01
1.883836453954910173e-01
1.750095529231945057e-01
1.750095529231945057e-01
1.750095529231945057e-01
1.753916698509744021e-01
1.753916698509744021e-01
1.910584638899503196e-01
1.910584638899503196e-01
1.910584638899503196e-01
1.788307222009934971e-01
1.788307222009934971e-01
1.818876576232326958e-01
1.818876576232326958e-01
1.818876576232326958e-01
1.738632021398547889e-01
1.738632021398547889e-01
1.837982422621322054e-01
1.837982422621322054e-01
1.837982422621322054e-01
1.891478792510508100e-01
1.891478792510508100e-01
1.910584638899503196e-01
1.910584638899503196e-01
1.910584638899503196e-01
1.807413068398930067e-01
1.807413068398930067e-01
1.979365685899885374e-01
1.979365685899885374e-01
1.979365685899885374e-01
1.899121131066106305e-01
1.899121131066106305e-01
1.792128391287733935e-01
1.792128391287733935e-01
1.792128391287733935e-01
1.765380206343140912e-01
1.765380206343140912e-01
1.910584638899503196e-01
1.910584638899503196e-01
1.910584638899503196e-01
1.929690485288498292e-01
1.929690485288498292e-01
1.876194115399312246e-01
1.876194115399312246e-01
1.876194115399312246e-01
1.895299961788307341e-01
1.895299961788307341e-01
1.841803591899121018e-01
1.841803591899121018e-01
1.841803591899121018e-01
1.933511654566297255e-01
1.933511654566297255e-01
1.914405808177302160e-01
1.914405808177302160e-01
1.914405808177302160e-01
2.036683225066870384e-01
2.036683225066870384e-01
1.906763469621704232e-01
1.906763469621704232e-01
1.906763469621704232e-01
1.891478792510508100e-01
1.891478792510508100e-01
2.009935040122277361e-01
2.009935040122277361e-01
2.009935040122277361e-01
2.036683225066870384e-01
2.036683225066870384e-01
2.063431410011463407e-01
2.063431410011463407e-01
2.063431410011463407e-01
2.063431410011463407e-01
2.063431410011463407e-01
2.059610240733664444e-01
2.059610240733664444e-01
2.059610240733664444e-01
2.181887657623232668e-01
2.181887657623232668e-01
2.143675964845242754e-01
2.143675964845242754e-01
2.143675964845242754e-01
2.181887657623232668e-01
2.181887657623232668e-01
2.227741688956820787e-01
2.227741688956820787e-01
2.246847535345815883e-01
2.246847535345815883e-01
2.246847535345815883e-01
2.311807413068398820e-01
2.311807413068398820e-01
2.430263660680168081e-01
2.430263660680168081e-01
2.430263660680168081e-01
2.468475353458158272e-01
2.468475353458158272e-01
2.479938861291555163e-01
2.479938861291555163e-01
2.479938861291555163e-01
2.499044707680550259e-01
2.499044707680550259e-01
2.628964463125716411e-01
2.628964463125716411e-01
2.628964463125716411e-01
2.579289262514329328e-01
2.579289262514329328e-01
2.502865876958349500e-01
2.502865876958349500e-01
2.502865876958349500e-01
2.686282002292701421e-01
2.686282002292701421e-01
2.743599541459686431e-01
2.743599541459686431e-01
2.743599541459686431e-01
2.781811234237676622e-01
2.781811234237676622e-01
2.854413450515858042e-01
2.854413450515858042e-01
2.854413450515858042e-01
2.896446312571647197e-01
2.896446312571647197e-01
2.938479174627435797e-01
2.938479174627435797e-01
2.938479174627435797e-01
2.785632403515475586e-01
2.785632403515475586e-01
2.980512036683224952e-01
2.980512036683224952e-01
2.980512036683224952e-01
2.965227359572029098e-01
2.965227359572029098e-01
3.056935422239205336e-01
3.056935422239205336e-01
3.056935422239205336e-01
3.060756591517004299e-01
3.060756591517004299e-01
3.026366068016813071e-01
3.026366068016813071e-01
3.026366068016813071e-01
3.091325945739396008e-01
3.091325945739396008e-01
2.969048528849828061e-01
2.969048528849828061e-01
2.969048528849828061e-01
3.095147115017195527e-01
3.095147115017195527e-01
3.087504776461597045e-01
3.087504776461597045e-01
3.087504776461597045e-01
3.064577760794803263e-01
3.064577760794803263e-01
3.076041268628200154e-01
3.076041268628200154e-01
3.076041268628200154e-01
3.137179977072984127e-01
3.137179977072984127e-01
3.228888039740160365e-01
3.228888039740160365e-01
3.228888039740160365e-01
3.137179977072984127e-01
3.137179977072984127e-01
3.259457393962552629e-01
3.259457393962552629e-01
3.259457393962552629e-01
3.179212839128773282e-01
3.179212839128773282e-01
3.286205578907145375e-01
3.286205578907145375e-01
3.286205578907145375e-01
3.324417271685135566e-01
3.324417271685135566e-01
3.297669086740542821e-01
3.297669086740542821e-01
3.297669086740542821e-01
3.209782193351165547e-01
3.209782193351165547e-01
3.282384409629346411e-01
3.282384409629346411e-01
3.282384409629346411e-01
3.251815055406954702e-01
3.251815055406954702e-01
3.186855177684371210e-01
3.186855177684371210e-01
3.186855177684371210e-01
3.286205578907145375e-01
3.286205578907145375e-01
3.217424531906763474e-01
3.217424531906763474e-01
3.217424531906763474e-01
3.228888039740160365e-01
3.228888039740160365e-01
3.274742071073748484e-01
3.274742071073748484e-01
3.274742071073748484e-01
3.232709209017959329e-01
3.232709209017959329e-01
3.282384409629346411e-01
3.282384409629346411e-01
3.282384409629346411e-01
3.160106992739778464e-01
3.160106992739778464e-01
3.278563240351547448e-01
3.278563240351547448e-01
3.278563240351547448e-01
3.183034008406572246e-01
3.183034008406572246e-01
3.213603362628964510e-01
3.213603362628964510e-01
3.213603362628964510e-01
3.282384409629346411e-01
3.282384409629346411e-01
3.186855177684371210e-01
3.186855177684371210e-01
3.186855177684371210e-01
3.152464654184180537e-01
3.152464654184180537e-01
3.186855177684371210e-01
3.186855177684371210e-01
3.186855177684371210e-01
3.171570500573175355e-01
3.171570500573175355e-01
3.263278563240351593e-01
3.263278563240351593e-01
3.263278563240351593e-01
3.228888039740160365e-01
3.228888039740160365e-01
3.160106992739778464e-01
3.160106992739778464e-01
3.160106992739778464e-01
3.190676346962170173e-01
3.190676346962170173e-01
3.186855177684371210e-01
3.186855177684371210e-01
3.186855177684371210e-01
3.213603362628964510e-01
3.213603362628964510e-01
3.179212839128773282e-01
3.179212839128773282e-01
3.179212839128773282e-01
3.297669086740542821e-01
3.297669086740542821e-01
3.152464654184180537e-01
3.152464654184180537e-01
3.152464654184180537e-01
3.255636224684753666e-01
3.255636224684753666e-01
3.167749331295376392e-01
3.167749331295376392e-01
3.167749331295376392e-01
3.267099732518150557e-01
3.267099732518150557e-01
3.129537638517386200e-01
3.129537638517386200e-01
3.129537638517386200e-01
3.041650745128008926e-01
3.041650745128008926e-01
3.118074130683989309e-01
3.118074130683989309e-01
3.118074130683989309e-01
3.190676346962170173e-01
3.190676346962170173e-01
3.167749331295376392e-01
3.167749331295376392e-01
3.167749331295376392e-01
3.083683607183798081e-01
3.083683607183798081e-01
3.045471914405808445e-01
3.045471914405808445e-01
3.045471914405808445e-01
3.011081390905617217e-01
3.011081390905617217e-01
3.064577760794803263e-01
3.064577760794803263e-01
3.064577760794803263e-01
3.068398930072602226e-01
3.068398930072602226e-01
3.083683607183798081e-01
3.083683607183798081e-01
3.083683607183798081e-01
3.007260221627818253e-01
3.007260221627818253e-01
3.064577760794803263e-01
3.064577760794803263e-01
3.064577760794803263e-01
3.095147115017195527e-01
3.095147115017195527e-01
3.014902560183416180e-01
3.014902560183416180e-01
3.064577760794803263e-01
3.064577760794803263e-01
3.064577760794803263e-01
3.060756591517004299e-01
3.060756591517004299e-01
2.961406190294230134e-01
2.961406190294230134e-01
2.961406190294230134e-01
2.980512036683224952e-01
2.980512036683224952e-01
2.957585021016431170e-01
2.957585021016431170e-01
2.957585021016431170e-01
3.041650745128008926e-01
3.041650745128008926e-01
2.961406190294230134e-01
2.961406190294230134e-01
2.961406190294230134e-01
2.884982804738249751e-01
2.884982804738249751e-01
2.884982804738249751e-01
2.884982804738249751e-01
2.884982804738249751e-01
2.873519296904852860e-01
2.873519296904852860e-01
2.862055789071455969e-01
2.862055789071455969e-01
2.862055789071455969e-01
2.839128773404661632e-01
2.839128773404661632e-01
2.789453572793274549e-01
2.789453572793274549e-01
2.789453572793274549e-01
2.831486434849063705e-01
2.831486434849063705e-01
2.728314864348490576e-01
2.728314864348490576e-01
2.728314864348490576e-01
2.846771111960260114e-01
2.846771111960260114e-01
2.820022927015666814e-01
2.820022927015666814e-01
2.820022927015666814e-01
2.755063049293083877e-01
2.755063049293083877e-01
2.781811234237676622e-01
2.781811234237676622e-01
2.781811234237676622e-01
2.709209017959495758e-01
2.709209017959495758e-01
2.670997325181505566e-01
2.670997325181505566e-01
2.670997325181505566e-01
2.571646923958731401e-01
2.571646923958731401e-01
2.655712648070309712e-01
2.655712648070309712e-01
2.655712648070309712e-01
2.541077569736339137e-01
2.541077569736339137e-01
2.541077569736339137e-01
2.541077569736339137e-01
2.541077569736339137e-01
2.518150554069545355e-01
2.518150554069545355e-01
2.495223538402751295e-01
2.495223538402751295e-01
2.495223538402751295e-01
2.495223538402751295e-01
2.495223538402751295e-01
2.556362246847535546e-01
2.556362246847535546e-01
2.556362246847535546e-01
2.537256400458540173e-01
2.537256400458540173e-01
2.464654184180359309e-01
2.464654184180359309e-01
2.464654184180359309e-01
2.441727168513565249e-01
2.441727168513565249e-01
2.445548337791364213e-01
2.445548337791364213e-01
2.445548337791364213e-01
2.372946121513183071e-01
2.372946121513183071e-01
2.384409629346579962e-01
2.384409629346579962e-01
2.384409629346579962e-01
2.330913259457393916e-01
2.330913259457393916e-01
2.376767290790982035e-01
2.376767290790982035e-01
2.376767290790982035e-01
2.223920519679021823e-01
2.223920519679021823e-01
2.372946121513183071e-01
2.372946121513183071e-01
2.372946121513183071e-01
2.258311043179212774e-01
2.258311043179212774e-01
2.227741688956820787e-01
2.227741688956820787e-01
2.227741688956820787e-01
2.246847535345815883e-01
2.246847535345815883e-01
2.178066488345433704e-01
2.178066488345433704e-01
2.178066488345433704e-01
2.311807413068398820e-01
2.311807413068398820e-01
2.204814673290026728e-01
2.204814673290026728e-01
2.204814673290026728e-01
2.151318303400840681e-01
2.151318303400840681e-01
2.285059228123805797e-01
2.285059228123805797e-01
2.285059228123805797e-01
2.101643102789453599e-01
2.101643102789453599e-01
2.181887657623232668e-01
2.181887657623232668e-01
2.181887657623232668e-01
2.101643102789453599e-01
2.101643102789453599e-01
2.109285441345051526e-01
2.109285441345051526e-01
2.109285441345051526e-01
2.170424149789835777e-01
2.170424149789835777e-01
2.155139472678639645e-01
2.155139472678639645e-01
2.155139472678639645e-01
2.036683225066870384e-01
2.036683225066870384e-01
2.170424149789835777e-01
2.170424149789835777e-01
2.170424149789835777e-01
2.139854795567443513e-01
2.139854795567443513e-01
2.086358425678257467e-01
2.086358425678257467e-01
2.086358425678257467e-01
2.059610240733664444e-01
2.059610240733664444e-01
2.036683225066870384e-01
2.036683225066870384e-01
2.036683225066870384e-01
2.044325563622468589e-01
2.044325563622468589e-01
1.987008024455483302e-01
1.987008024455483302e-01
1.987008024455483302e-01
2.036683225066870384e-01
2.036683225066870384e-01
2.025219717233473493e-01
2.025219717233473493e-01
2.025219717233473493e-01
2.139854795567443513e-01
2.139854795567443513e-01
1.967902178066488483e-01
1.967902178066488483e-01
1.967902178066488483e-01
2.055789071455865480e-01
2.055789071455865480e-01
2.063431410011463407e-01
2.063431410011463407e-01
2.063431410011463407e-01
1.994650363011081506e-01
1.994650363011081506e-01
1.983186855177684338e-01
1.983186855177684338e-01
1.983186855177684338e-01
2.097821933511654635e-01
2.097821933511654635e-01
2.067252579289262648e-01
2.067252579289262648e-01
2.067252579289262648e-01
1.994650363011081506e-01
1.994650363011081506e-01
2.078716087122659539e-01
2.078716087122659539e-01
2.078716087122659539e-01
2.025219717233473493e-01
2.025219717233473493e-01
2.074894917844860576e-01
2.074894917844860576e-01
2.074894917844860576e-01
1.983186855177684338e-01
1.983186855177684338e-01
2.009935040122277361e-01
2.009935040122277361e-01
2.009935040122277361e-01
1.998471532288880470e-01
1.998471532288880470e-01
2.090179594956056430e-01
2.090179594956056430e-01
2.090179594956056430e-01
2.067252579289262648e-01
2.067252579289262648e-01
2.044325563622468589e-01
2.044325563622468589e-01
2.025219717233473493e-01
2.025219717233473493e-01
2.025219717233473493e-01
2.063431410011463407e-01
2.063431410011463407e-01
2.017577378677875566e-01
2.017577378677875566e-01
2.017577378677875566e-01
2.055789071455865480e-01
2.055789071455865480e-01
2.006113870844478397e-01
2.006113870844478397e-01
2.006113870844478397e-01
2.040504394344669348e-01
2.040504394344669348e-01
1.998471532288880470e-01
1.998471532288880470e-01
1.998471532288880470e-01
1.914405808177302160e-01
1.914405808177302160e-01
2.048146732900267553e-01
2.048146732900267553e-01
2.048146732900267553e-01
1.975544516622086411e-01
1.975544516622086411e-01
1.987008024455483302e-01
1.987008024455483302e-01
1.987008024455483302e-01
1.941153993121895183e-01
1.941153993121895183e-01
2.055789071455865480e-01
2.055789071455865480e-01
2.055789071455865480e-01
1.899121131066106305e-01
1.899121131066106305e-01
2.029040886511272457e-01
2.029040886511272457e-01
2.029040886511272457e-01
1.960259839510890278e-01
1.960259839510890278e-01
1.987008024455483302e-01
1.987008024455483302e-01
1.987008024455483302e-01
1.979365685899885374e-01
1.979365685899885374e-01
1.979365685899885374e-01
1.979365685899885374e-01
1.979365685899885374e-01
1.849445930454719222e-01
1.849445930454719222e-01
1.998471532288880470e-01
1.998471532288880470e-01
1.998471532288880470e-01
1.971723347344287447e-01
1.971723347344287447e-01
2.040504394344669348e-01
2.040504394344669348e-01
2.040504394344669348e-01
2.006113870844478397e-01
2.006113870844478397e-01
1.868551776843714041e-01
1.868551776843714041e-01
1.868551776843714041e-01
1.914405808177302160e-01
1.914405808177302160e-01
1.845624761176920259e-01
1.845624761176920259e-01
1.845624761176920259e-01
1.868551776843714041e-01
1.868551776843714041e-01
1.891478792510508100e-01
1.891478792510508100e-01
1.891478792510508100e-01
1.971723347344287447e-01
1.971723347344287447e-01
1.872372946121513282e-01
1.872372946121513282e-01
1.872372946121513282e-01
1.891478792510508100e-01
1.891478792510508100e-01
1.872372946121513282e-01
1.872372946121513282e-01
1.872372946121513282e-01
1.872372946121513282e-01
1.872372946121513282e-01
1.811234237676729031e-01
1.811234237676729031e-01
1.811234237676729031e-01
1.853267099732518186e-01
1.853267099732518186e-01
1.883836453954910173e-01
1.883836453954910173e-01
1.883836453954910173e-01
1.929690485288498292e-01
1.929690485288498292e-01
1.952617500955292351e-01
1.952617500955292351e-01
1.952617500955292351e-01
1.937332823844096219e-01
1.937332823844096219e-01
1.853267099732518186e-01
1.853267099732518186e-01
1.853267099732518186e-01
1.941153993121895183e-01
1.941153993121895183e-01
1.799770729843332140e-01
1.799770729843332140e-01
1.799770729843332140e-01
1.826518914787925163e-01
1.826518914787925163e-01
1.925869316010699328e-01
1.925869316010699328e-01
1.925869316010699328e-01
1.811234237676729031e-01
1.811234237676729031e-01
1.929690485288498292e-01
1.929690485288498292e-01
1.929690485288498292e-01
1.742453190676346853e-01
1.742453190676346853e-01
1.788307222009934971e-01
1.788307222009934971e-01
1.788307222009934971e-01
1.807413068398930067e-01
1.807413068398930067e-01
1.830340084065724127e-01
1.830340084065724127e-01
1.830340084065724127e-01
1.769201375620939876e-01
1.769201375620939876e-01
1.742453190676346853e-01
1.742453190676346853e-01
1.742453190676346853e-01
1.730989682842949962e-01
1.730989682842949962e-01
1.753916698509744021e-01
1.753916698509744021e-01
1.753916698509744021e-01
1.864730607565915077e-01
1.864730607565915077e-01
1.860909438288116113e-01
1.860909438288116113e-01
1.860909438288116113e-01
1.891478792510508100e-01
1.891478792510508100e-01
1.868551776843714041e-01
1.868551776843714041e-01
1.868551776843714041e-01
1.922048146732900364e-01
1.922048146732900364e-01
1.880015284677111209e-01
1.880015284677111209e-01
1.880015284677111209e-01
1.792128391287733935e-01
1.792128391287733935e-01
1.868551776843714041e-01
1.868551776843714041e-01
1.868551776843714041e-01
1.834161253343523090e-01
1.834161253343523090e-01
1.837982422621322054e-01
1.837982422621322054e-01
1.837982422621322054e-01
1.918226977455101123e-01
1.918226977455101123e-01
1.723347344287352034e-01
1.723347344287352034e-01
1.723347344287352034e-01
1.899121131066106305e-01
1.899121131066106305e-01
1.746274359954146094e-01
1.746274359954146094e-01
1.746274359954146094e-01
1.780664883454337044e-01
1.780664883454337044e-01
1.765380206343140912e-01
1.765380206343140912e-01
1.765380206343140912e-01
1.750095529231945057e-01
1.750095529231945057e-01
1.761559037065341948e-01
1.761559037065341948e-01
1.761559037065341948e-01
1.880015284677111209e-01
1.880015284677111209e-01
1.822697745510126199e-01
1.822697745510126199e-01
1.822697745510126199e-01
1.753916698509744021e-01
1.753916698509744021e-01
1.795949560565533176e-01
1.795949560565533176e-01
1.795949560565533176e-01
1.792128391287733935e-01
1.792128391287733935e-01
1.761559037065341948e-01
1.761559037065341948e-01
1.761559037065341948e-01
1.753916698509744021e-01
1.753916698509744021e-01
1.769201375620939876e-01
1.769201375620939876e-01
1.769201375620939876e-01
1.899121131066106305e-01
1.899121131066106305e-01
1.765380206343140912e-01
1.765380206343140912e-01
1.742453190676346853e-01
1.742453190676346853e-01
1.742453190676346853e-01
1.906763469621704232e-01
1.906763469621704232e-01
1.864730607565915077e-01
1.864730607565915077e-01
1.864730607565915077e-01
1.868551776843714041e-01
1.868551776843714041e-01
1.761559037065341948e-01
1.761559037065341948e-01
1.761559037065341948e-01
1.853267099732518186e-01
1.853267099732518186e-01
1.910584638899503196e-01
1.910584638899503196e-01
1.910584638899503196e-01
1.880015284677111209e-01
1.880015284677111209e-01
1.868551776843714041e-01
1.868551776843714041e-01
1.868551776843714041e-01
1.826518914787925163e-01
1.826518914787925163e-01
1.822697745510126199e-01
1.822697745510126199e-01
1.822697745510126199e-01
1.887657623232709136e-01
1.887657623232709136e-01
1.895299961788307341e-01
1.895299961788307341e-01
1.895299961788307341e-01
1.845624761176920259e-01
1.845624761176920259e-01
1.792128391287733935e-01
1.792128391287733935e-01
1.792128391287733935e-01
1.730989682842949962e-01
1.730989682842949962e-01
1.956438670233091315e-01
1.956438670233091315e-01
1.956438670233091315e-01
1.849445930454719222e-01
1.849445930454719222e-01
1.815055406954527994e-01
1.815055406954527994e-01
1.815055406954527994e-01
1.822697745510126199e-01
1.822697745510126199e-01
1.891478792510508100e-01
1.891478792510508100e-01
1.891478792510508100e-01
1.807413068398930067e-01
1.807413068398930067e-01
1.815055406954527994e-01
1.815055406954527994e-01
1.815055406954527994e-01
1.864730607565915077e-01
1.864730607565915077e-01
1.826518914787925163e-01
1.826518914787925163e-01
1.826518914787925163e-01
1.849445930454719222e-01
1.849445930454719222e-01
1.857088269010317150e-01
1.857088269010317150e-01
1.857088269010317150e-01
1.792128391287733935e-01
1.792128391287733935e-01
1.864730607565915077e-01
1.864730607565915077e-01
1.864730607565915077e-01
1.925869316010699328e-01
1.925869316010699328e-01
1.746274359954146094e-01
1.746274359954146094e-01
1.746274359954146094e-01
1.730989682842949962e-01
1.730989682842949962e-01
1.849445930454719222e-01
1.849445930454719222e-01
1.849445930454719222e-01
1.776843714176538080e-01
1.776843714176538080e-01
1.730989682842949962e-01
1.730989682842949962e-01
1.730989682842949962e-01
1.792128391287733935e-01
1.792128391287733935e-01
1.826518914787925163e-01
1.826518914787925163e-01
1.826518914787925163e-01
1.910584638899503196e-01
1.910584638899503196e-01
1.937332823844096219e-01
1.937332823844096219e-01
1.937332823844096219e-01
1.799770729843332140e-01
1.799770729843332140e-01
1.799770729843332140e-01
1.799770729843332140e-01
1.799770729843332140e-01
1.902942300343905269e-01
1.902942300343905269e-01
1.795949560565533176e-01
1.795949560565533176e-01
1.795949560565533176e-01
1.837982422621322054e-01
1.837982422621322054e-01
1.841803591899121018e-01
1.841803591899121018e-01
1.841803591899121018e-01
1.815055406954527994e-01
1.815055406954527994e-01
1.792128391287733935e-01
1.792128391287733935e-01
1.792128391287733935e-01
1.929690485288498292e-01
1.929690485288498292e-01
1.933511654566297255e-01
1.933511654566297255e-01
1.933511654566297255e-01
1.948796331677493388e-01
1.948796331677493388e-01
1.837982422621322054e-01
1.837982422621322054e-01
1.837982422621322054e-01
1.952617500955292351e-01
1.952617500955292351e-01
1.891478792510508100e-01
1.891478792510508100e-01
1.891478792510508100e-01
1.811234237676729031e-01
1.811234237676729031e-01
1.792128391287733935e-01
1.792128391287733935e-01
1.792128391287733935e-01
1.830340084065724127e-01
1.830340084065724127e-01
1.841803591899121018e-01
1.841803591899121018e-01
1.841803591899121018e-01
1.960259839510890278e-01
1.960259839510890278e-01
1.815055406954527994e-01
1.815055406954527994e-01
1.815055406954527994e-01
1.914405808177302160e-01
1.914405808177302160e-01
1.868551776843714041e-01
1.868551776843714041e-01
1.868551776843714041e-01
1.876194115399312246e-01
1.876194115399312246e-01
1.803591899121131104e-01
1.803591899121131104e-01
1.803591899121131104e-01
1.876194115399312246e-01
1.876194115399312246e-01
1.868551776843714041e-01
1.868551776843714041e-01
1.868551776843714041e-01
1.918226977455101123e-01
1.918226977455101123e-01
1.960259839510890278e-01
1.960259839510890278e-01
1.960259839510890278e-01
1.860909438288116113e-01
1.860909438288116113e-01
1.902942300343905269e-01
1.902942300343905269e-01
1.902942300343905269e-01
1.906763469621704232e-01
1.906763469621704232e-01
1.983186855177684338e-01
1.983186855177684338e-01
1.983186855177684338e-01
1.979365685899885374e-01
1.979365685899885374e-01
1.925869316010699328e-01
1.925869316010699328e-01
1.925869316010699328e-01
