1.715705005731753829e-01
1.620175773786778628e-01
1.620175773786778628e-01
1.620175773786778628e-01
1.761559037065341948e-01
1.761559037065341948e-01
1.761559037065341948e-01
1.761559037065341948e-01
1.761559037065341948e-01
1.727168513565150998e-01
1.727168513565150998e-01
1.631639281620175796e-01
1.631639281620175796e-01
1.631639281620175796e-01
1.761559037065341948e-01
1.761559037065341948e-01
1.734810852120748925e-01
1.734810852120748925e-01
1.734810852120748925e-01
1.692777990064959770e-01
1.692777990064959770e-01
1.780664883454337044e-01
1.780664883454337044e-01
1.780664883454337044e-01
1.704241497898356938e-01
1.704241497898356938e-01
1.872372946121513282e-01
1.872372946121513282e-01
1.872372946121513282e-01
1.685135651509361843e-01
1.685135651509361843e-01
1.811234237676729031e-01
1.811234237676729031e-01
1.811234237676729031e-01
1.849445930454719222e-01
1.849445930454719222e-01
1.677493312953763915e-01
1.677493312953763915e-01
1.677493312953763915e-01
1.769201375620939876e-01
1.769201375620939876e-01
1.826518914787925163e-01
1.826518914787925163e-01
1.826518914787925163e-01
1.738632021398547889e-01
1.738632021398547889e-01
1.815055406954527994e-01
1.815055406954527994e-01
1.815055406954527994e-01
1.761559037065341948e-01
1.761559037065341948e-01
1.773022544898739117e-01
1.773022544898739117e-01
1.773022544898739117e-01
1.669850974398165711e-01
1.669850974398165711e-01
1.937332823844096219e-01
1.937332823844096219e-01
1.937332823844096219e-01
1.818876576232326958e-01
1.818876576232326958e-01
1.887657623232709136e-01
1.887657623232709136e-01
1.887657623232709136e-01
1.826518914787925163e-01
1.826518914787925163e-01
1.826518914787925163e-01
1.826518914787925163e-01
1.826518914787925163e-01
2.036683225066870384e-01
2.036683225066870384e-01
1.983186855177684338e-01
1.983186855177684338e-01
1.983186855177684338e-01
2.109285441345051526e-01
2.109285441345051526e-01
1.994650363011081506e-01
1.994650363011081506e-01
1.994650363011081506e-01
2.193351165456629837e-01
2.193351165456629837e-01
2.124570118456247658e-01
2.124570118456247658e-01
2.124570118456247658e-01
2.273595720290408906e-01
2.273595720290408906e-01
2.288880397401604760e-01
2.288880397401604760e-01
2.288880397401604760e-01
2.518150554069545355e-01
2.518150554069545355e-01
2.598395108903324147e-01
2.598395108903324147e-01
2.598395108903324147e-01
2.697745510126098312e-01
2.697745510126098312e-01
2.816201757737867850e-01
2.816201757737867850e-01
2.816201757737867850e-01
2.904088651127245124e-01
2.904088651127245124e-01
3.041650745128008926e-01
3.041650745128008926e-01
3.041650745128008926e-01
3.030187237294612035e-01
3.030187237294612035e-01
3.171570500573175355e-01
3.171570500573175355e-01
3.171570500573175355e-01
3.209782193351165547e-01
3.209782193351165547e-01
3.309132594573939712e-01
3.309132594573939712e-01
3.309132594573939712e-01
3.488727550630492669e-01
3.488727550630492669e-01
3.568972105464272015e-01
3.568972105464272015e-01
3.568972105464272015e-01
3.603362628964463243e-01
3.603362628964463243e-01
3.832632785632403283e-01
3.832632785632403283e-01
3.832632785632403283e-01
3.813526939243408465e-01
3.813526939243408465e-01
3.958731371799770749e-01
3.958731371799770749e-01
3.958731371799770749e-01
3.951089033244172821e-01
3.951089033244172821e-01
4.042797095911349059e-01
4.042797095911349059e-01
4.042797095911349059e-01
4.019870080244554722e-01
4.019870080244554722e-01
4.168895682078715970e-01
4.168895682078715970e-01
4.168895682078715970e-01
4.188001528467711343e-01
4.188001528467711343e-01
4.188001528467711343e-01
4.188001528467711343e-01
4.188001528467711343e-01
4.401987008024455528e-01
4.401987008024455528e-01
4.375238823079862227e-01
4.375238823079862227e-01
4.375238823079862227e-01
4.359954145968666372e-01
4.359954145968666372e-01
4.486052732136033838e-01
4.486052732136033838e-01
4.486052732136033838e-01
4.394344669468857600e-01
4.394344669468857600e-01
4.356132976690867409e-01
4.356132976690867409e-01
4.356132976690867409e-01
4.455483377913641574e-01
4.455483377913641574e-01
4.394344669468857600e-01
4.394344669468857600e-01
4.394344669468857600e-01
4.405808177302254491e-01
4.405808177302254491e-01
4.516622086358425547e-01
4.516622086358425547e-01
4.665647688192586795e-01
4.665647688192586795e-01
4.665647688192586795e-01
4.577760794803209521e-01
4.577760794803209521e-01
4.573939625525410557e-01
4.573939625525410557e-01
4.573939625525410557e-01
4.554833779136415739e-01
4.554833779136415739e-01
4.405808177302254491e-01
4.405808177302254491e-01
4.405808177302254491e-01
4.516622086358425547e-01
4.516622086358425547e-01
4.612151318303400749e-01
4.612151318303400749e-01
4.612151318303400749e-01
4.623614826136797640e-01
4.623614826136797640e-01
4.497516239969430729e-01
4.497516239969430729e-01
4.497516239969430729e-01
4.531906763469621957e-01
4.531906763469621957e-01
4.444019870080244683e-01
4.444019870080244683e-01
4.444019870080244683e-01
4.516622086358425547e-01
4.516622086358425547e-01
4.566297286969812630e-01
4.566297286969812630e-01
4.566297286969812630e-01
4.478410393580435356e-01
4.478410393580435356e-01
4.516622086358425547e-01
4.516622086358425547e-01
4.516622086358425547e-01
4.608330149025601785e-01
4.608330149025601785e-01
4.531906763469621957e-01
4.531906763469621957e-01
4.531906763469621957e-01
4.627435995414596603e-01
4.627435995414596603e-01
4.535727932747420921e-01
4.535727932747420921e-01
4.535727932747420921e-01
4.363775315246465336e-01
4.363775315246465336e-01
4.547191440580817812e-01
4.547191440580817812e-01
4.547191440580817812e-01
4.562476117692013666e-01
4.562476117692013666e-01
4.371417653802063263e-01
4.371417653802063263e-01
4.371417653802063263e-01
4.535727932747420921e-01
4.535727932747420921e-01
4.482231562858234875e-01
4.482231562858234875e-01
4.482231562858234875e-01
4.424914023691249310e-01
4.424914023691249310e-01
4.344669468857470518e-01
4.344669468857470518e-01
4.344669468857470518e-01
4.466946885747038465e-01
4.466946885747038465e-01
4.474589224302636392e-01
4.474589224302636392e-01
4.474589224302636392e-01
4.489873901413832802e-01
4.489873901413832802e-01
4.470768055024837428e-01
4.470768055024837428e-01
4.470768055024837428e-01
4.463125716469239501e-01
4.463125716469239501e-01
4.436377531524646756e-01
4.436377531524646756e-01
4.436377531524646756e-01
4.371417653802063263e-01
4.371417653802063263e-01
4.325563622468475145e-01
4.325563622468475145e-01
4.325563622468475145e-01
4.405808177302254491e-01
4.405808177302254491e-01
4.314100114635078254e-01
4.314100114635078254e-01
4.314100114635078254e-01
4.367596484524264300e-01
4.367596484524264300e-01
4.413450515857852419e-01
4.413450515857852419e-01
4.413450515857852419e-01
4.329384791746274108e-01
4.329384791746274108e-01
4.298815437523882399e-01
4.298815437523882399e-01
4.298815437523882399e-01
4.329384791746274108e-01
4.329384791746274108e-01
4.207107374856706161e-01
4.207107374856706161e-01
4.207107374856706161e-01
4.298815437523882399e-01
4.298815437523882399e-01
4.252961406190294280e-01
4.252961406190294280e-01
4.252961406190294280e-01
4.268246083301490135e-01
4.268246083301490135e-01
4.302636606801681363e-01
4.302636606801681363e-01
4.302636606801681363e-01
4.176538020634313897e-01
4.176538020634313897e-01
4.168895682078715970e-01
4.168895682078715970e-01
4.168895682078715970e-01
4.256782575468093244e-01
4.256782575468093244e-01
4.268246083301490135e-01
4.268246083301490135e-01
4.268246083301490135e-01
4.103935804356133032e-01
4.103935804356133032e-01
4.226213221245700979e-01
4.226213221245700979e-01
4.226213221245700979e-01
4.115399312189529923e-01
4.115399312189529923e-01
4.252961406190294280e-01
4.252961406190294280e-01
4.252961406190294280e-01
4.134505158578525297e-01
4.134505158578525297e-01
4.046618265189148023e-01
4.046618265189148023e-01
4.046618265189148023e-01
4.214749713412304089e-01
4.214749713412304089e-01
4.081008788689338695e-01
4.081008788689338695e-01
4.081008788689338695e-01
4.054260603744745950e-01
4.054260603744745950e-01
3.974016048910966603e-01
3.974016048910966603e-01
3.974016048910966603e-01
3.958731371799770749e-01
3.958731371799770749e-01
3.889950324799388848e-01
3.889950324799388848e-01
3.889950324799388848e-01
3.909056171188383666e-01
3.909056171188383666e-01
3.847917462743599692e-01
3.847917462743599692e-01
3.847917462743599692e-01
3.931983186855177448e-01
3.931983186855177448e-01
3.931983186855177448e-01
3.931983186855177448e-01
3.931983186855177448e-01
3.771494077187619309e-01
3.771494077187619309e-01
3.763851738632021382e-01
3.763851738632021382e-01
3.763851738632021382e-01
3.813526939243408465e-01
3.813526939243408465e-01
3.687428353076040999e-01
3.687428353076040999e-01
3.687428353076040999e-01
3.721818876576232227e-01
3.721818876576232227e-01
3.630110813909055989e-01
3.630110813909055989e-01
3.630110813909055989e-01
3.653037829575850326e-01
3.653037829575850326e-01
3.504012227741689078e-01
3.504012227741689078e-01
3.504012227741689078e-01
3.664501337409247217e-01
3.664501337409247217e-01
3.435231180741306622e-01
3.435231180741306622e-01
3.435231180741306622e-01
3.484906381352693705e-01
3.484906381352693705e-01
3.523118074130683897e-01
3.523118074130683897e-01
3.523118074130683897e-01
3.481085212074894741e-01
3.481085212074894741e-01
3.446694688574704069e-01
3.446694688574704069e-01
3.255636224684753666e-01
3.255636224684753666e-01
3.255636224684753666e-01
3.278563240351547448e-01
3.278563240351547448e-01
3.079862437905999117e-01
3.079862437905999117e-01
3.079862437905999117e-01
3.301490256018341785e-01
3.301490256018341785e-01
3.079862437905999117e-01
3.079862437905999117e-01
3.079862437905999117e-01
3.068398930072602226e-01
3.068398930072602226e-01
3.087504776461597045e-01
3.087504776461597045e-01
3.087504776461597045e-01
3.091325945739396008e-01
3.091325945739396008e-01
2.930836836071837870e-01
2.930836836071837870e-01
2.930836836071837870e-01
3.003439052350019289e-01
3.003439052350019289e-01
3.030187237294612035e-01
3.030187237294612035e-01
3.030187237294612035e-01
2.942300343905234761e-01
2.942300343905234761e-01
2.839128773404661632e-01
2.839128773404661632e-01
2.839128773404661632e-01
2.858234619793657005e-01
2.858234619793657005e-01
2.862055789071455969e-01
2.862055789071455969e-01
2.862055789071455969e-01
2.804738249904470959e-01
2.804738249904470959e-01
2.735957202904088503e-01
2.735957202904088503e-01
2.735957202904088503e-01
2.720672525792892649e-01
2.720672525792892649e-01
2.724493695070691612e-01
2.724493695070691612e-01
2.724493695070691612e-01
2.606037447458922629e-01
2.606037447458922629e-01
2.670997325181505566e-01
2.670997325181505566e-01
2.670997325181505566e-01
2.583110431792128292e-01
2.583110431792128292e-01
2.659533817348108675e-01
2.659533817348108675e-01
2.659533817348108675e-01
2.602216278181123665e-01
2.602216278181123665e-01
2.598395108903324147e-01
2.598395108903324147e-01
2.598395108903324147e-01
2.674818494459304530e-01
2.674818494459304530e-01
2.636606801681314338e-01
2.636606801681314338e-01
2.636606801681314338e-01
2.609858616736721593e-01
2.609858616736721593e-01
2.632785632403515375e-01
2.632785632403515375e-01
2.632785632403515375e-01
2.663354986625907639e-01
2.663354986625907639e-01
2.460833014902560067e-01
2.460833014902560067e-01
2.460833014902560067e-01
2.460833014902560067e-01
2.460833014902560067e-01
2.625143293847917447e-01
2.625143293847917447e-01
2.625143293847917447e-01
2.502865876958349500e-01
2.502865876958349500e-01
2.510508215513947428e-01
2.510508215513947428e-01
2.510508215513947428e-01
2.483760030569354127e-01
2.483760030569354127e-01
2.422621322124570153e-01
2.422621322124570153e-01
2.422621322124570153e-01
2.487581199847153091e-01
2.487581199847153091e-01
2.353840275124187975e-01
2.353840275124187975e-01
2.353840275124187975e-01
2.468475353458158272e-01
2.468475353458158272e-01
2.541077569736339137e-01
2.541077569736339137e-01
2.541077569736339137e-01
2.483760030569354127e-01
2.483760030569354127e-01
2.476117692013756200e-01
2.476117692013756200e-01
2.476117692013756200e-01
2.307986243790599856e-01
2.307986243790599856e-01
2.304165074512800893e-01
2.304165074512800893e-01
2.304165074512800893e-01
2.464654184180359309e-01
2.464654184180359309e-01
2.407336645013374021e-01
2.407336645013374021e-01
2.407336645013374021e-01
2.346197936568590048e-01
2.346197936568590048e-01
2.342376767290791084e-01
2.342376767290791084e-01
2.342376767290791084e-01
2.243026366068016919e-01
2.243026366068016919e-01
2.311807413068398820e-01
2.311807413068398820e-01
2.311807413068398820e-01
2.239205196790217678e-01
2.239205196790217678e-01
2.422621322124570153e-01
2.422621322124570153e-01
2.422621322124570153e-01
2.323270920901795988e-01
2.323270920901795988e-01
2.300343905235001929e-01
2.300343905235001929e-01
2.300343905235001929e-01
2.311807413068398820e-01
2.311807413068398820e-01
2.262132212457011737e-01
2.262132212457011737e-01
2.262132212457011737e-01
2.254489873901413810e-01
2.254489873901413810e-01
2.288880397401604760e-01
2.288880397401604760e-01
2.288880397401604760e-01
2.208635842567825691e-01
2.208635842567825691e-01
2.136033626289644549e-01
2.136033626289644549e-01
2.136033626289644549e-01
2.178066488345433704e-01
2.178066488345433704e-01
2.258311043179212774e-01
2.258311043179212774e-01
2.258311043179212774e-01
2.158960641956438609e-01
2.158960641956438609e-01
2.166602980512036813e-01
2.166602980512036813e-01
2.166602980512036813e-01
2.216278181123423896e-01
2.216278181123423896e-01
2.132212457011845586e-01
2.132212457011845586e-01
2.132212457011845586e-01
2.143675964845242754e-01
2.143675964845242754e-01
2.078716087122659539e-01
2.078716087122659539e-01
2.078716087122659539e-01
2.200993504012227764e-01
2.200993504012227764e-01
2.166602980512036813e-01
2.166602980512036813e-01
2.166602980512036813e-01
2.216278181123423896e-01
2.216278181123423896e-01
2.193351165456629837e-01
2.193351165456629837e-01
2.193351165456629837e-01
1.971723347344287447e-01
1.971723347344287447e-01
2.025219717233473493e-01
2.025219717233473493e-01
2.025219717233473493e-01
1.948796331677493388e-01
1.948796331677493388e-01
2.113106610622850490e-01
2.113106610622850490e-01
2.113106610622850490e-01
1.990829193733282265e-01
1.990829193733282265e-01
1.979365685899885374e-01
1.979365685899885374e-01
1.979365685899885374e-01
2.090179594956056430e-01
2.090179594956056430e-01
1.983186855177684338e-01
1.983186855177684338e-01
2.090179594956056430e-01
2.090179594956056430e-01
2.090179594956056430e-01
1.956438670233091315e-01
1.956438670233091315e-01
2.002292701566679434e-01
2.002292701566679434e-01
2.002292701566679434e-01
2.017577378677875566e-01
2.017577378677875566e-01
2.071073748567061612e-01
2.071073748567061612e-01
2.071073748567061612e-01
2.002292701566679434e-01
2.002292701566679434e-01
1.845624761176920259e-01
1.845624761176920259e-01
1.845624761176920259e-01
1.834161253343523090e-01
1.834161253343523090e-01
1.860909438288116113e-01
1.860909438288116113e-01
1.860909438288116113e-01
1.964081008788689242e-01
1.964081008788689242e-01
1.910584638899503196e-01
1.910584638899503196e-01
1.910584638899503196e-01
1.929690485288498292e-01
1.929690485288498292e-01
1.864730607565915077e-01
1.864730607565915077e-01
1.864730607565915077e-01
1.818876576232326958e-01
1.818876576232326958e-01
1.784486052732136008e-01
1.784486052732136008e-01
1.784486052732136008e-01
1.841803591899121018e-01
1.841803591899121018e-01
2.017577378677875566e-01
2.017577378677875566e-01
2.017577378677875566e-01
1.964081008788689242e-01
1.964081008788689242e-01
1.964081008788689242e-01
1.964081008788689242e-01
1.964081008788689242e-01
1.803591899121131104e-01
1.803591899121131104e-01
1.727168513565150998e-01
1.727168513565150998e-01
1.727168513565150998e-01
1.776843714176538080e-01
1.776843714176538080e-01
1.841803591899121018e-01
1.841803591899121018e-01
1.841803591899121018e-01
1.750095529231945057e-01
1.750095529231945057e-01
1.773022544898739117e-01
1.773022544898739117e-01
1.773022544898739117e-01
1.883836453954910173e-01
1.883836453954910173e-01
1.872372946121513282e-01
1.872372946121513282e-01
1.872372946121513282e-01
1.880015284677111209e-01
1.880015284677111209e-01
1.719526175009552793e-01
1.719526175009552793e-01
1.719526175009552793e-01
1.841803591899121018e-01
1.841803591899121018e-01
1.803591899121131104e-01
1.803591899121131104e-01
1.803591899121131104e-01
1.719526175009552793e-01
1.719526175009552793e-01
1.811234237676729031e-01
1.811234237676729031e-01
1.811234237676729031e-01
1.773022544898739117e-01
1.773022544898739117e-01
1.830340084065724127e-01
1.830340084065724127e-01
1.830340084065724127e-01
1.853267099732518186e-01
1.853267099732518186e-01
1.773022544898739117e-01
1.773022544898739117e-01
1.773022544898739117e-01
1.730989682842949962e-01
1.730989682842949962e-01
1.746274359954146094e-01
1.746274359954146094e-01
1.746274359954146094e-01
1.837982422621322054e-01
1.837982422621322054e-01
1.639281620175773724e-01
1.639281620175773724e-01
1.639281620175773724e-01
1.677493312953763915e-01
1.677493312953763915e-01
1.807413068398930067e-01
1.807413068398930067e-01
1.807413068398930067e-01
1.708062667176155902e-01
1.708062667176155902e-01
1.669850974398165711e-01
1.669850974398165711e-01
1.669850974398165711e-01
1.704241497898356938e-01
1.704241497898356938e-01
1.746274359954146094e-01
1.746274359954146094e-01
1.746274359954146094e-01
1.658387466564768820e-01
1.658387466564768820e-01
1.646923958731371929e-01
1.646923958731371929e-01
1.646923958731371929e-01
1.769201375620939876e-01
1.769201375620939876e-01
1.658387466564768820e-01
1.658387466564768820e-01
1.658387466564768820e-01
1.730989682842949962e-01
1.730989682842949962e-01
1.795949560565533176e-01
1.795949560565533176e-01
1.795949560565533176e-01
1.685135651509361843e-01
1.685135651509361843e-01
1.723347344287352034e-01
1.723347344287352034e-01
1.723347344287352034e-01
1.704241497898356938e-01
1.704241497898356938e-01
1.753916698509744021e-01
1.753916698509744021e-01
1.753916698509744021e-01
1.692777990064959770e-01
1.692777990064959770e-01
1.811234237676729031e-01
1.811234237676729031e-01
1.811234237676729031e-01
1.616354604508979664e-01
1.616354604508979664e-01
1.692777990064959770e-01
1.692777990064959770e-01
1.692777990064959770e-01
1.589606419564386641e-01
1.589606419564386641e-01
1.750095529231945057e-01
1.750095529231945057e-01
1.750095529231945057e-01
1.730989682842949962e-01
1.730989682842949962e-01
1.589606419564386641e-01
1.589606419564386641e-01
1.589606419564386641e-01
1.723347344287352034e-01
1.723347344287352034e-01
1.738632021398547889e-01
1.738632021398547889e-01
1.738632021398547889e-01
1.753916698509744021e-01
1.753916698509744021e-01
1.723347344287352034e-01
1.723347344287352034e-01
1.723347344287352034e-01
1.578142911730989750e-01
1.578142911730989750e-01
1.704241497898356938e-01
1.704241497898356938e-01
1.704241497898356938e-01
1.593427588842185605e-01
1.593427588842185605e-01
1.639281620175773724e-01
1.639281620175773724e-01
1.639281620175773724e-01
1.524646541841803704e-01
1.524646541841803704e-01
1.765380206343140912e-01
1.765380206343140912e-01
1.765380206343140912e-01
1.750095529231945057e-01
1.750095529231945057e-01
1.616354604508979664e-01
1.616354604508979664e-01
1.616354604508979664e-01
1.539931218952999559e-01
1.539931218952999559e-01
1.715705005731753829e-01
1.715705005731753829e-01
1.715705005731753829e-01
1.635460450897974760e-01
1.635460450897974760e-01
1.604891096675582773e-01
1.604891096675582773e-01
1.604891096675582773e-01
1.551394726786396727e-01
1.551394726786396727e-01
1.773022544898739117e-01
1.773022544898739117e-01
1.627818112342376833e-01
1.627818112342376833e-01
1.627818112342376833e-01
1.727168513565150998e-01
1.727168513565150998e-01
1.612533435231180701e-01
1.612533435231180701e-01
1.612533435231180701e-01
1.593427588842185605e-01
1.593427588842185605e-01
1.788307222009934971e-01
1.788307222009934971e-01
1.788307222009934971e-01
1.566679403897592582e-01
1.566679403897592582e-01
1.788307222009934971e-01
1.788307222009934971e-01
1.788307222009934971e-01
1.585785250286587678e-01
1.585785250286587678e-01
1.685135651509361843e-01
1.685135651509361843e-01
1.685135651509361843e-01
1.593427588842185605e-01
1.593427588842185605e-01
1.566679403897592582e-01
1.566679403897592582e-01
1.566679403897592582e-01
1.612533435231180701e-01
1.612533435231180701e-01
1.700420328620557975e-01
1.700420328620557975e-01
1.700420328620557975e-01
1.539931218952999559e-01
1.539931218952999559e-01
1.639281620175773724e-01
1.639281620175773724e-01
1.639281620175773724e-01
1.654566297286969856e-01
1.654566297286969856e-01
1.570500573175391545e-01
1.570500573175391545e-01
1.570500573175391545e-01
1.677493312953763915e-01
1.677493312953763915e-01
1.654566297286969856e-01
1.654566297286969856e-01
1.654566297286969856e-01
1.681314482231562879e-01
1.681314482231562879e-01
1.742453190676346853e-01
1.742453190676346853e-01
1.742453190676346853e-01
1.551394726786396727e-01
1.551394726786396727e-01
1.528467711119602668e-01
1.528467711119602668e-01
1.528467711119602668e-01
1.574321742453190787e-01
1.574321742453190787e-01
1.646923958731371929e-01
1.646923958731371929e-01
1.646923958731371929e-01
1.723347344287352034e-01
1.723347344287352034e-01
1.570500573175391545e-01
1.570500573175391545e-01
1.570500573175391545e-01
1.730989682842949962e-01
1.730989682842949962e-01
1.692777990064959770e-01
1.692777990064959770e-01
1.692777990064959770e-01
1.719526175009552793e-01
1.719526175009552793e-01
1.719526175009552793e-01
1.719526175009552793e-01
1.719526175009552793e-01
1.604891096675582773e-01
1.604891096675582773e-01
1.539931218952999559e-01
1.539931218952999559e-01
1.539931218952999559e-01
1.524646541841803704e-01
1.524646541841803704e-01
1.547573557508597764e-01
1.547573557508597764e-01
1.547573557508597764e-01
1.623996943064577869e-01
1.623996943064577869e-01
1.547573557508597764e-01
1.547573557508597764e-01
1.547573557508597764e-01
1.532288880397401631e-01
1.532288880397401631e-01
1.677493312953763915e-01
1.677493312953763915e-01
1.677493312953763915e-01
1.589606419564386641e-01
1.589606419564386641e-01
1.635460450897974760e-01
1.635460450897974760e-01
1.635460450897974760e-01
1.746274359954146094e-01
1.746274359954146094e-01
1.612533435231180701e-01
1.612533435231180701e-01
1.612533435231180701e-01
1.662208635842567783e-01
1.662208635842567783e-01
1.711883836453954866e-01
1.711883836453954866e-01
1.711883836453954866e-01
1.513183034008406536e-01
1.513183034008406536e-01
1.654566297286969856e-01
1.654566297286969856e-01
1.654566297286969856e-01
1.761559037065341948e-01
1.761559037065341948e-01
1.578142911730989750e-01
1.578142911730989750e-01
1.578142911730989750e-01
1.662208635842567783e-01
1.662208635842567783e-01
1.555215896064195691e-01
1.555215896064195691e-01
1.555215896064195691e-01
1.715705005731753829e-01
1.715705005731753829e-01
1.711883836453954866e-01
1.711883836453954866e-01
1.711883836453954866e-01
1.700420328620557975e-01
1.700420328620557975e-01
1.643102789453572687e-01
1.643102789453572687e-01
1.643102789453572687e-01
1.753916698509744021e-01
1.753916698509744021e-01
1.730989682842949962e-01
1.730989682842949962e-01
1.730989682842949962e-01
1.566679403897592582e-01
1.566679403897592582e-01
1.692777990064959770e-01
1.692777990064959770e-01
1.692777990064959770e-01
1.608712265953381737e-01
1.608712265953381737e-01
1.597248758119984846e-01
1.597248758119984846e-01
1.597248758119984846e-01
1.631639281620175796e-01
1.631639281620175796e-01
1.685135651509361843e-01
1.685135651509361843e-01
1.685135651509361843e-01
1.608712265953381737e-01
1.608712265953381737e-01
1.631639281620175796e-01
1.631639281620175796e-01
1.631639281620175796e-01
1.559037065341994654e-01
1.559037065341994654e-01
1.650745128009170892e-01
1.650745128009170892e-01
1.650745128009170892e-01
1.738632021398547889e-01
1.738632021398547889e-01
1.639281620175773724e-01
1.639281620175773724e-01
1.639281620175773724e-01
1.700420328620557975e-01
1.700420328620557975e-01
1.711883836453954866e-01
1.711883836453954866e-01
1.711883836453954866e-01
1.757737867787542985e-01
1.757737867787542985e-01
1.578142911730989750e-01
1.578142911730989750e-01
1.578142911730989750e-01
1.597248758119984846e-01
1.597248758119984846e-01
1.608712265953381737e-01
1.608712265953381737e-01
1.608712265953381737e-01
1.597248758119984846e-01
1.597248758119984846e-01
1.555215896064195691e-01
1.555215896064195691e-01
1.555215896064195691e-01
1.654566297286969856e-01
1.654566297286969856e-01
1.792128391287733935e-01
1.792128391287733935e-01
1.792128391287733935e-01
1.604891096675582773e-01
1.604891096675582773e-01
1.750095529231945057e-01
1.750095529231945057e-01
1.578142911730989750e-01
1.578142911730989750e-01
1.578142911730989750e-01
1.826518914787925163e-01
1.826518914787925163e-01
1.604891096675582773e-01
1.604891096675582773e-01
1.604891096675582773e-01
1.570500573175391545e-01
1.570500573175391545e-01
1.769201375620939876e-01
1.769201375620939876e-01
1.769201375620939876e-01
1.635460450897974760e-01
1.635460450897974760e-01
1.715705005731753829e-01
1.715705005731753829e-01
1.715705005731753829e-01
1.811234237676729031e-01
1.811234237676729031e-01
1.578142911730989750e-01
1.578142911730989750e-01
1.578142911730989750e-01
1.734810852120748925e-01
1.734810852120748925e-01
1.623996943064577869e-01
1.623996943064577869e-01
1.623996943064577869e-01
1.692777990064959770e-01
1.692777990064959770e-01
1.723347344287352034e-01
1.723347344287352034e-01
1.723347344287352034e-01
1.597248758119984846e-01
1.597248758119984846e-01
1.685135651509361843e-01
1.685135651509361843e-01
1.685135651509361843e-01
1.753916698509744021e-01
1.753916698509744021e-01
1.643102789453572687e-01
1.643102789453572687e-01
1.643102789453572687e-01
1.589606419564386641e-01
1.589606419564386641e-01
1.658387466564768820e-01
1.658387466564768820e-01
1.658387466564768820e-01
1.784486052732136008e-01
1.784486052732136008e-01
1.669850974398165711e-01
1.669850974398165711e-01
1.669850974398165711e-01
1.662208635842567783e-01
1.662208635842567783e-01
1.700420328620557975e-01
1.700420328620557975e-01
1.700420328620557975e-01
1.585785250286587678e-01
1.585785250286587678e-01
1.765380206343140912e-01
1.765380206343140912e-01
1.765380206343140912e-01
1.715705005731753829e-01
1.715705005731753829e-01
1.666029805120366747e-01
1.666029805120366747e-01
1.666029805120366747e-01
1.845624761176920259e-01
1.845624761176920259e-01
1.688956820787160806e-01
1.688956820787160806e-01
1.688956820787160806e-01
1.734810852120748925e-01
1.734810852120748925e-01
1.631639281620175796e-01
1.631639281620175796e-01
1.631639281620175796e-01
1.708062667176155902e-01
1.708062667176155902e-01
1.639281620175773724e-01
1.639281620175773724e-01
1.639281620175773724e-01
1.639281620175773724e-01
1.639281620175773724e-01
1.757737867787542985e-01
1.757737867787542985e-01
1.757737867787542985e-01
1.715705005731753829e-01
1.715705005731753829e-01
1.673672143675964952e-01
1.673672143675964952e-01
1.673672143675964952e-01
1.826518914787925163e-01
1.826518914787925163e-01
1.799770729843332140e-01
1.799770729843332140e-01
1.799770729843332140e-01
1.677493312953763915e-01
1.677493312953763915e-01
1.597248758119984846e-01
1.597248758119984846e-01
1.597248758119984846e-01
1.666029805120366747e-01
1.666029805120366747e-01
1.807413068398930067e-01
1.807413068398930067e-01
1.807413068398930067e-01
1.776843714176538080e-01
1.776843714176538080e-01
1.719526175009552793e-01
1.719526175009552793e-01
1.719526175009552793e-01
1.742453190676346853e-01
1.742453190676346853e-01
1.757737867787542985e-01
1.757737867787542985e-01
1.757737867787542985e-01
1.711883836453954866e-01
1.711883836453954866e-01
1.815055406954527994e-01
1.815055406954527994e-01
1.815055406954527994e-01
1.822697745510126199e-01
1.822697745510126199e-01
1.933511654566297255e-01
1.933511654566297255e-01
1.933511654566297255e-01
1.937332823844096219e-01
1.937332823844096219e-01
1.872372946121513282e-01
1.872372946121513282e-01
1.872372946121513282e-01
1.937332823844096219e-01
1.937332823844096219e-01
2.029040886511272457e-01
2.029040886511272457e-01
2.029040886511272457e-01
2.136033626289644549e-01
2.136033626289644549e-01
2.200993504012227764e-01
2.200993504012227764e-01
2.200993504012227764e-01
2.158960641956438609e-01
2.158960641956438609e-01
2.208635842567825691e-01
2.208635842567825691e-01
2.208635842567825691e-01
2.449369507069163177e-01
2.449369507069163177e-01
2.361482613679785902e-01
2.361482613679785902e-01
2.361482613679785902e-01
2.579289262514329328e-01
2.579289262514329328e-01
2.693924340848299348e-01
2.693924340848299348e-01
2.693924340848299348e-01
2.728314864348490576e-01
2.728314864348490576e-01
2.911730989682843052e-01
2.911730989682843052e-01
2.911730989682843052e-01
2.949942682460833243e-01
2.949942682460833243e-01
2.942300343905234761e-01
2.942300343905234761e-01
2.942300343905234761e-01
3.034008406572410999e-01
3.034008406572410999e-01
3.194497516239969692e-01
3.194497516239969692e-01
3.194497516239969692e-01
3.175391669850974319e-01
3.175391669850974319e-01
3.255636224684753666e-01
3.255636224684753666e-01
3.255636224684753666e-01
3.496369889186091151e-01
3.496369889186091151e-01
3.450515857852503032e-01
3.450515857852503032e-01
3.450515857852503032e-01
3.461979365685899923e-01
3.461979365685899923e-01
3.580435613297668906e-01
3.580435613297668906e-01
3.580435613297668906e-01
3.714176538020634299e-01
3.714176538020634299e-01
3.695070691631639481e-01
3.695070691631639481e-01
3.695070691631639481e-01
3.760030569354222418e-01
3.760030569354222418e-01
3.882307986243790365e-01
3.882307986243790365e-01
3.882307986243790365e-01
3.954910202521971785e-01
3.954910202521971785e-01
3.935804356132976967e-01
3.935804356132976967e-01
3.935804356132976967e-01
3.874665647688192438e-01
3.874665647688192438e-01
3.989300726022163013e-01
3.989300726022163013e-01
3.924340848299579521e-01
3.924340848299579521e-01
3.924340848299579521e-01
4.081008788689338695e-01
4.081008788689338695e-01
4.019870080244554722e-01
4.019870080244554722e-01
4.019870080244554722e-01
4.054260603744745950e-01
4.054260603744745950e-01
4.134505158578525297e-01
4.134505158578525297e-01
4.134505158578525297e-01
4.081008788689338695e-01
4.081008788689338695e-01
4.149789835689721151e-01
4.149789835689721151e-01
4.149789835689721151e-01
4.031333588077951613e-01
4.031333588077951613e-01
4.077187619411539732e-01
4.077187619411539732e-01
4.077187619411539732e-01
4.195643867023309270e-01
4.195643867023309270e-01
4.119220481467328887e-01
4.119220481467328887e-01
4.119220481467328887e-01
4.222392051967902016e-01
4.222392051967902016e-01
4.027512418800152649e-01
4.027512418800152649e-01
4.027512418800152649e-01
4.123041650745127851e-01
4.123041650745127851e-01
4.065724111578142841e-01
4.065724111578142841e-01
4.065724111578142841e-01
4.084829957967138214e-01
4.084829957967138214e-01
4.199465036301108234e-01
4.199465036301108234e-01
4.199465036301108234e-01
4.199465036301108234e-01
4.199465036301108234e-01
4.203286205578907198e-01
4.203286205578907198e-01
4.203286205578907198e-01
4.153611004967520115e-01
4.153611004967520115e-01
4.115399312189529923e-01
4.115399312189529923e-01
4.115399312189529923e-01
4.142147497134123224e-01
4.142147497134123224e-01
4.016048910966755758e-01
4.016048910966755758e-01
4.016048910966755758e-01
4.134505158578525297e-01
4.134505158578525297e-01
3.989300726022163013e-01
3.989300726022163013e-01
3.989300726022163013e-01
4.031333588077951613e-01
4.031333588077951613e-01
4.115399312189529923e-01
4.115399312189529923e-01
4.115399312189529923e-01
4.069545280855941805e-01
4.069545280855941805e-01
4.088651127244937178e-01
4.088651127244937178e-01
4.088651127244937178e-01
3.966373710355368676e-01
3.966373710355368676e-01
4.004585403133358867e-01
4.004585403133358867e-01
4.004585403133358867e-01
4.054260603744745950e-01
4.054260603744745950e-01
3.993121895299961976e-01
3.993121895299961976e-01
3.993121895299961976e-01
4.031333588077951613e-01
4.031333588077951613e-01
4.012227741688956795e-01
4.012227741688956795e-01
4.012227741688956795e-01
3.931983186855177448e-01
3.931983186855177448e-01
4.038975926633550095e-01
4.038975926633550095e-01
4.038975926633550095e-01
3.966373710355368676e-01
3.966373710355368676e-01
3.920519679021780557e-01
3.920519679021780557e-01
3.920519679021780557e-01
3.886129155521589329e-01
3.886129155521589329e-01
4.050439434466946986e-01
4.050439434466946986e-01
4.050439434466946986e-01
3.901413832632785739e-01
3.901413832632785739e-01
3.931983186855177448e-01
3.931983186855177448e-01
3.931983186855177448e-01
3.993121895299961976e-01
3.993121895299961976e-01
3.981658387466564530e-01
3.981658387466564530e-01
3.981658387466564530e-01
4.016048910966755758e-01
4.016048910966755758e-01
3.985479556744364049e-01
3.985479556744364049e-01
3.985479556744364049e-01
4.054260603744745950e-01
4.054260603744745950e-01
3.947267863966373858e-01
3.947267863966373858e-01
3.947267863966373858e-01
3.928162017577378484e-01
3.928162017577378484e-01
3.889950324799388848e-01
3.889950324799388848e-01
3.889950324799388848e-01
3.832632785632403283e-01
3.832632785632403283e-01
3.878486816965991402e-01
3.878486816965991402e-01
3.878486816965991402e-01
3.909056171188383666e-01
3.909056171188383666e-01
3.779136415743217237e-01
3.779136415743217237e-01
3.779136415743217237e-01
3.878486816965991402e-01
3.878486816965991402e-01
3.821169277799006392e-01
3.821169277799006392e-01
3.821169277799006392e-01
3.782957585021016200e-01
3.782957585021016200e-01
3.897592663354986775e-01
3.897592663354986775e-01
3.897592663354986775e-01
3.821169277799006392e-01
3.821169277799006392e-01
3.844096293465800729e-01
3.844096293465800729e-01
3.844096293465800729e-01
3.702713030187237409e-01
3.702713030187237409e-01
3.813526939243408465e-01
3.813526939243408465e-01
3.813526939243408465e-01
3.737103553687428081e-01
3.737103553687428081e-01
3.824990447076805355e-01
3.824990447076805355e-01
3.824990447076805355e-01
3.653037829575850326e-01
3.653037829575850326e-01
3.607183798242262207e-01
3.607183798242262207e-01
3.607183798242262207e-01
3.679786014520443072e-01
3.679786014520443072e-01
3.557508597630875125e-01
3.557508597630875125e-01
3.557508597630875125e-01
3.702713030187237409e-01
3.702713030187237409e-01
3.702713030187237409e-01
3.702713030187237409e-01
3.702713030187237409e-01
3.526939243408482860e-01
3.526939243408482860e-01
3.611004967520061171e-01
3.611004967520061171e-01
3.611004967520061171e-01
3.591899121131066352e-01
3.591899121131066352e-01
3.370271303018723685e-01
3.370271303018723685e-01
3.370271303018723685e-01
3.381734810852120576e-01
3.381734810852120576e-01
3.370271303018723685e-01
3.370271303018723685e-01
3.370271303018723685e-01
3.473442873519296814e-01
3.473442873519296814e-01
3.374092472296522649e-01
3.374092472296522649e-01
3.374092472296522649e-01
3.435231180741306622e-01
3.435231180741306622e-01
3.221245701184562438e-01
3.221245701184562438e-01
3.335880779518532457e-01
3.335880779518532457e-01
3.335880779518532457e-01
3.324417271685135566e-01
3.324417271685135566e-01
3.213603362628964510e-01
3.213603362628964510e-01
3.213603362628964510e-01
3.186855177684371210e-01
3.186855177684371210e-01
3.221245701184562438e-01
3.221245701184562438e-01
3.221245701184562438e-01
2.976690867405425989e-01
2.976690867405425989e-01
3.076041268628200154e-01
3.076041268628200154e-01
3.076041268628200154e-01
2.927015666794038906e-01
2.927015666794038906e-01
3.037829575850209962e-01
3.037829575850209962e-01
3.037829575850209962e-01
2.896446312571647197e-01
2.896446312571647197e-01
3.041650745128008926e-01
3.041650745128008926e-01
3.041650745128008926e-01
2.831486434849063705e-01
2.831486434849063705e-01
2.904088651127245124e-01
2.904088651127245124e-01
2.904088651127245124e-01
2.877340466182651824e-01
2.877340466182651824e-01
2.797095911348873032e-01
2.797095911348873032e-01
2.797095911348873032e-01
2.690103171570500384e-01
2.690103171570500384e-01
2.609858616736721593e-01
2.609858616736721593e-01
2.609858616736721593e-01
2.716851356515093685e-01
2.716851356515093685e-01
2.575468093236530365e-01
2.575468093236530365e-01
2.575468093236530365e-01
2.709209017959495758e-01
2.709209017959495758e-01
2.560183416125334510e-01
2.560183416125334510e-01
2.560183416125334510e-01
2.609858616736721593e-01
2.609858616736721593e-01
2.678639663737103493e-01
2.678639663737103493e-01
2.678639663737103493e-01
2.678639663737103493e-01
2.678639663737103493e-01
2.625143293847917447e-01
2.625143293847917447e-01
2.625143293847917447e-01
2.556362246847535546e-01
2.556362246847535546e-01
2.529614061902942246e-01
2.529614061902942246e-01
2.529614061902942246e-01
2.411157814291172985e-01
2.411157814291172985e-01
2.567825754680932437e-01
2.567825754680932437e-01
2.567825754680932437e-01
2.468475353458158272e-01
2.468475353458158272e-01
2.499044707680550259e-01
2.499044707680550259e-01
2.499044707680550259e-01
2.399694306457776094e-01
2.399694306457776094e-01
2.388230798624378926e-01
2.388230798624378926e-01
2.388230798624378926e-01
2.361482613679785902e-01
2.361482613679785902e-01
2.434084829957967044e-01
2.434084829957967044e-01
2.434084829957967044e-01
2.307986243790599856e-01
2.307986243790599856e-01
2.357661444401986939e-01
2.357661444401986939e-01
2.357661444401986939e-01
2.258311043179212774e-01
2.258311043179212774e-01
2.292701566679404002e-01
2.292701566679404002e-01
2.292701566679404002e-01
2.403515475735575058e-01
2.403515475735575058e-01
2.472296522735957236e-01
2.472296522735957236e-01
2.472296522735957236e-01
2.223920519679021823e-01
2.223920519679021823e-01
2.403515475735575058e-01
2.403515475735575058e-01
2.403515475735575058e-01
2.418800152846771190e-01
2.418800152846771190e-01
2.422621322124570153e-01
2.422621322124570153e-01
2.422621322124570153e-01
2.269774551012609942e-01
2.269774551012609942e-01
2.288880397401604760e-01
2.288880397401604760e-01
2.288880397401604760e-01
2.388230798624378926e-01
2.388230798624378926e-01
2.388230798624378926e-01
2.388230798624378926e-01
2.388230798624378926e-01
2.353840275124187975e-01
2.353840275124187975e-01
2.334734428735192879e-01
2.334734428735192879e-01
2.334734428735192879e-01
2.392051967902178167e-01
2.392051967902178167e-01
2.212457011845624655e-01
2.212457011845624655e-01
2.212457011845624655e-01
2.395873137179977130e-01
2.395873137179977130e-01
2.372946121513183071e-01
2.372946121513183071e-01
2.372946121513183071e-01
2.357661444401986939e-01
2.357661444401986939e-01
2.311807413068398820e-01
2.311807413068398820e-01
2.311807413068398820e-01
2.315628582346198061e-01
2.315628582346198061e-01
2.338555598012991843e-01
2.338555598012991843e-01
2.338555598012991843e-01
2.162781811234237572e-01
2.162781811234237572e-01
2.208635842567825691e-01
2.208635842567825691e-01
2.208635842567825691e-01
2.105464272067252562e-01
2.105464272067252562e-01
2.269774551012609942e-01
2.269774551012609942e-01
2.269774551012609942e-01
2.254489873901413810e-01
2.254489873901413810e-01
2.128391287734046622e-01
2.128391287734046622e-01
2.128391287734046622e-01
2.262132212457011737e-01
2.262132212457011737e-01
2.296522735957202965e-01
2.296522735957202965e-01
2.296522735957202965e-01
2.250668704623614846e-01
2.250668704623614846e-01
2.090179594956056430e-01
2.090179594956056430e-01
2.090179594956056430e-01
2.101643102789453599e-01
2.101643102789453599e-01
2.074894917844860576e-01
2.074894917844860576e-01
2.074894917844860576e-01
2.036683225066870384e-01
2.036683225066870384e-01
2.074894917844860576e-01
2.074894917844860576e-01
2.074894917844860576e-01
2.204814673290026728e-01
2.204814673290026728e-01
2.059610240733664444e-01
2.059610240733664444e-01
2.059610240733664444e-01
2.116927779900649731e-01
2.116927779900649731e-01
1.964081008788689242e-01
1.964081008788689242e-01
1.964081008788689242e-01
2.136033626289644549e-01
2.136033626289644549e-01
1.933511654566297255e-01
1.933511654566297255e-01
1.933511654566297255e-01
2.032862055789071420e-01
2.032862055789071420e-01
1.975544516622086411e-01
1.975544516622086411e-01
1.983186855177684338e-01
1.983186855177684338e-01
1.983186855177684338e-01
2.063431410011463407e-01
2.063431410011463407e-01
1.941153993121895183e-01
1.941153993121895183e-01
1.941153993121895183e-01
1.937332823844096219e-01
1.937332823844096219e-01
2.067252579289262648e-01
2.067252579289262648e-01
2.067252579289262648e-01
2.040504394344669348e-01
2.040504394344669348e-01
1.944975162399694424e-01
1.944975162399694424e-01
1.944975162399694424e-01
1.967902178066488483e-01
1.967902178066488483e-01
1.872372946121513282e-01
1.872372946121513282e-01
1.872372946121513282e-01
2.055789071455865480e-01
2.055789071455865480e-01
2.009935040122277361e-01
2.009935040122277361e-01
2.009935040122277361e-01
1.914405808177302160e-01
1.914405808177302160e-01
1.826518914787925163e-01
1.826518914787925163e-01
1.826518914787925163e-01
1.853267099732518186e-01
1.853267099732518186e-01
1.979365685899885374e-01
1.979365685899885374e-01
1.979365685899885374e-01
1.830340084065724127e-01
1.830340084065724127e-01
1.983186855177684338e-01
1.983186855177684338e-01
1.983186855177684338e-01
1.914405808177302160e-01
1.914405808177302160e-01
1.914405808177302160e-01
1.914405808177302160e-01
1.914405808177302160e-01
1.887657623232709136e-01
1.887657623232709136e-01
1.960259839510890278e-01
1.960259839510890278e-01
1.960259839510890278e-01
1.834161253343523090e-01
1.834161253343523090e-01
1.799770729843332140e-01
1.799770729843332140e-01
1.799770729843332140e-01
1.891478792510508100e-01
1.891478792510508100e-01
1.956438670233091315e-01
1.956438670233091315e-01
1.956438670233091315e-01
1.837982422621322054e-01
1.837982422621322054e-01
1.788307222009934971e-01
1.788307222009934971e-01
1.788307222009934971e-01
1.803591899121131104e-01
1.803591899121131104e-01
1.742453190676346853e-01
1.742453190676346853e-01
1.742453190676346853e-01
1.776843714176538080e-01
1.776843714176538080e-01
1.753916698509744021e-01
1.753916698509744021e-01
1.753916698509744021e-01
1.818876576232326958e-01
1.818876576232326958e-01
1.704241497898356938e-01
1.704241497898356938e-01
1.704241497898356938e-01
1.876194115399312246e-01
1.876194115399312246e-01
1.922048146732900364e-01
1.922048146732900364e-01
1.922048146732900364e-01
1.730989682842949962e-01
1.730989682842949962e-01
1.669850974398165711e-01
1.669850974398165711e-01
1.669850974398165711e-01
1.841803591899121018e-01
1.841803591899121018e-01
1.857088269010317150e-01
1.857088269010317150e-01
1.857088269010317150e-01
1.700420328620557975e-01
1.700420328620557975e-01
1.799770729843332140e-01
1.799770729843332140e-01
1.799770729843332140e-01
1.872372946121513282e-01
1.872372946121513282e-01
1.845624761176920259e-01
1.845624761176920259e-01
1.845624761176920259e-01
1.788307222009934971e-01
1.788307222009934971e-01
1.688956820787160806e-01
1.688956820787160806e-01
1.688956820787160806e-01
1.669850974398165711e-01
1.669850974398165711e-01
1.669850974398165711e-01
1.669850974398165711e-01
1.669850974398165711e-01
1.688956820787160806e-01
1.688956820787160806e-01
1.650745128009170892e-01
1.650745128009170892e-01
1.650745128009170892e-01
1.757737867787542985e-01
1.757737867787542985e-01
1.769201375620939876e-01
1.769201375620939876e-01
1.769201375620939876e-01
1.700420328620557975e-01
1.700420328620557975e-01
1.730989682842949962e-01
1.730989682842949962e-01
1.730989682842949962e-01
1.826518914787925163e-01
1.826518914787925163e-01
1.727168513565150998e-01
1.727168513565150998e-01
1.727168513565150998e-01
1.799770729843332140e-01
1.799770729843332140e-01
1.734810852120748925e-01
1.734810852120748925e-01
1.734810852120748925e-01
1.715705005731753829e-01
1.715705005731753829e-01
1.719526175009552793e-01
1.719526175009552793e-01
1.719526175009552793e-01
1.654566297286969856e-01
1.654566297286969856e-01
1.719526175009552793e-01
1.719526175009552793e-01
1.719526175009552793e-01
1.738632021398547889e-01
1.738632021398547889e-01
1.727168513565150998e-01
1.727168513565150998e-01
1.727168513565150998e-01
1.643102789453572687e-01
1.643102789453572687e-01
1.788307222009934971e-01
1.788307222009934971e-01
1.788307222009934971e-01
1.849445930454719222e-01
1.849445930454719222e-01
1.761559037065341948e-01
1.761559037065341948e-01
1.761559037065341948e-01
1.654566297286969856e-01
1.654566297286969856e-01
1.765380206343140912e-01
1.765380206343140912e-01
1.765380206343140912e-01
1.826518914787925163e-01
1.826518914787925163e-01
1.623996943064577869e-01
1.623996943064577869e-01
1.623996943064577869e-01
1.711883836453954866e-01
1.711883836453954866e-01
1.627818112342376833e-01
1.627818112342376833e-01
1.627818112342376833e-01
1.654566297286969856e-01
1.654566297286969856e-01
1.750095529231945057e-01
1.750095529231945057e-01
1.750095529231945057e-01
1.822697745510126199e-01
1.822697745510126199e-01
1.631639281620175796e-01
1.631639281620175796e-01
1.631639281620175796e-01
1.631639281620175796e-01
1.631639281620175796e-01
1.643102789453572687e-01
1.643102789453572687e-01
1.643102789453572687e-01
1.711883836453954866e-01
1.711883836453954866e-01
1.753916698509744021e-01
1.753916698509744021e-01
1.753916698509744021e-01
1.646923958731371929e-01
1.646923958731371929e-01
1.788307222009934971e-01
1.788307222009934971e-01
1.662208635842567783e-01
1.662208635842567783e-01
1.662208635842567783e-01
1.757737867787542985e-01
1.757737867787542985e-01
1.811234237676729031e-01
1.811234237676729031e-01
1.811234237676729031e-01
1.643102789453572687e-01
1.643102789453572687e-01
1.776843714176538080e-01
1.776843714176538080e-01
1.776843714176538080e-01
1.761559037065341948e-01
1.761559037065341948e-01
1.597248758119984846e-01
1.597248758119984846e-01
1.597248758119984846e-01
1.612533435231180701e-01
1.612533435231180701e-01
1.666029805120366747e-01
1.666029805120366747e-01
1.666029805120366747e-01
1.581964081008788714e-01
1.581964081008788714e-01
1.776843714176538080e-01
1.776843714176538080e-01
1.776843714176538080e-01
1.811234237676729031e-01
1.811234237676729031e-01
1.604891096675582773e-01
1.604891096675582773e-01
1.604891096675582773e-01
1.635460450897974760e-01
1.635460450897974760e-01
1.708062667176155902e-01
1.708062667176155902e-01
1.708062667176155902e-01
1.765380206343140912e-01
1.765380206343140912e-01
1.631639281620175796e-01
1.631639281620175796e-01
1.631639281620175796e-01
1.658387466564768820e-01
1.658387466564768820e-01
1.841803591899121018e-01
1.841803591899121018e-01
1.841803591899121018e-01
1.589606419564386641e-01
1.589606419564386641e-01
1.669850974398165711e-01
1.669850974398165711e-01
1.669850974398165711e-01
1.765380206343140912e-01
1.765380206343140912e-01
1.773022544898739117e-01
1.773022544898739117e-01
1.773022544898739117e-01
1.761559037065341948e-01
1.761559037065341948e-01
1.631639281620175796e-01
1.631639281620175796e-01
1.631639281620175796e-01
1.700420328620557975e-01
1.700420328620557975e-01
1.646923958731371929e-01
1.646923958731371929e-01
1.646923958731371929e-01
1.696599159342759011e-01
1.696599159342759011e-01
1.692777990064959770e-01
1.692777990064959770e-01
1.692777990064959770e-01
1.646923958731371929e-01
1.646923958731371929e-01
1.750095529231945057e-01
1.750095529231945057e-01
1.750095529231945057e-01
1.711883836453954866e-01
1.711883836453954866e-01
1.757737867787542985e-01
1.757737867787542985e-01
1.757737867787542985e-01
1.639281620175773724e-01
1.639281620175773724e-01
1.730989682842949962e-01
1.730989682842949962e-01
1.730989682842949962e-01
1.792128391287733935e-01
1.792128391287733935e-01
1.631639281620175796e-01
1.631639281620175796e-01
1.631639281620175796e-01
1.795949560565533176e-01
1.795949560565533176e-01
1.723347344287352034e-01
1.723347344287352034e-01
1.723347344287352034e-01
1.623996943064577869e-01
1.623996943064577869e-01
1.612533435231180701e-01
1.612533435231180701e-01
1.612533435231180701e-01
1.822697745510126199e-01
1.822697745510126199e-01
1.719526175009552793e-01
1.719526175009552793e-01
1.719526175009552793e-01
1.646923958731371929e-01
1.646923958731371929e-01
1.780664883454337044e-01
1.780664883454337044e-01
1.780664883454337044e-01
1.715705005731753829e-01
1.715705005731753829e-01
1.662208635842567783e-01
1.662208635842567783e-01
1.662208635842567783e-01
1.685135651509361843e-01
1.685135651509361843e-01
1.685135651509361843e-01
1.685135651509361843e-01
1.685135651509361843e-01
1.746274359954146094e-01
1.746274359954146094e-01
1.815055406954527994e-01
1.815055406954527994e-01
1.815055406954527994e-01
1.837982422621322054e-01
1.837982422621322054e-01
1.780664883454337044e-01
1.780664883454337044e-01
1.780664883454337044e-01
1.765380206343140912e-01
1.765380206343140912e-01
1.746274359954146094e-01
1.746274359954146094e-01
1.746274359954146094e-01
1.673672143675964952e-01
1.673672143675964952e-01
1.753916698509744021e-01
1.753916698509744021e-01
1.753916698509744021e-01
1.635460450897974760e-01
1.635460450897974760e-01
1.692777990064959770e-01
1.692777990064959770e-01
1.692777990064959770e-01
1.688956820787160806e-01
1.688956820787160806e-01
1.723347344287352034e-01
1.723347344287352034e-01
1.723347344287352034e-01
1.750095529231945057e-01
1.750095529231945057e-01
1.776843714176538080e-01
1.776843714176538080e-01
1.776843714176538080e-01
1.685135651509361843e-01
1.685135651509361843e-01
1.811234237676729031e-01
1.811234237676729031e-01
1.811234237676729031e-01
1.788307222009934971e-01
1.788307222009934971e-01
1.742453190676346853e-01
1.742453190676346853e-01
1.742453190676346853e-01
1.688956820787160806e-01
1.688956820787160806e-01
1.715705005731753829e-01
1.715705005731753829e-01
1.715705005731753829e-01
1.826518914787925163e-01
1.826518914787925163e-01
1.776843714176538080e-01
1.776843714176538080e-01
1.776843714176538080e-01
1.715705005731753829e-01
1.715705005731753829e-01
1.719526175009552793e-01
1.719526175009552793e-01
1.719526175009552793e-01
1.788307222009934971e-01
1.788307222009934971e-01
1.807413068398930067e-01
1.807413068398930067e-01
1.807413068398930067e-01
1.696599159342759011e-01
1.696599159342759011e-01
1.688956820787160806e-01
1.688956820787160806e-01
1.688956820787160806e-01
1.719526175009552793e-01
1.719526175009552793e-01
1.719526175009552793e-01
1.719526175009552793e-01
1.719526175009552793e-01
1.776843714176538080e-01
1.776843714176538080e-01
1.849445930454719222e-01
1.849445930454719222e-01
1.811234237676729031e-01
1.811234237676729031e-01
1.811234237676729031e-01
1.876194115399312246e-01
1.876194115399312246e-01
1.776843714176538080e-01
1.776843714176538080e-01
1.776843714176538080e-01
1.723347344287352034e-01
1.723347344287352034e-01
1.696599159342759011e-01
1.696599159342759011e-01
1.696599159342759011e-01
1.696599159342759011e-01
1.696599159342759011e-01
1.780664883454337044e-01
1.780664883454337044e-01
1.780664883454337044e-01
1.899121131066106305e-01
1.899121131066106305e-01
1.753916698509744021e-01
1.753916698509744021e-01
1.753916698509744021e-01
1.730989682842949962e-01
1.730989682842949962e-01
1.899121131066106305e-01
1.899121131066106305e-01
1.899121131066106305e-01
1.708062667176155902e-01
1.708062667176155902e-01
1.795949560565533176e-01
1.795949560565533176e-01
1.795949560565533176e-01
1.711883836453954866e-01
1.711883836453954866e-01
1.788307222009934971e-01
1.788307222009934971e-01
1.788307222009934971e-01
1.815055406954527994e-01
1.815055406954527994e-01
1.818876576232326958e-01
1.818876576232326958e-01
1.818876576232326958e-01
1.788307222009934971e-01
1.788307222009934971e-01
1.761559037065341948e-01
1.761559037065341948e-01
1.761559037065341948e-01
1.944975162399694424e-01
1.944975162399694424e-01
1.918226977455101123e-01
1.918226977455101123e-01
1.918226977455101123e-01
1.880015284677111209e-01
1.880015284677111209e-01
1.910584638899503196e-01
1.910584638899503196e-01
1.910584638899503196e-01
1.880015284677111209e-01
1.880015284677111209e-01
1.738632021398547889e-01
1.738632021398547889e-01
1.738632021398547889e-01
1.872372946121513282e-01
1.872372946121513282e-01
1.723347344287352034e-01
1.723347344287352034e-01
1.723347344287352034e-01
1.803591899121131104e-01
1.803591899121131104e-01
1.792128391287733935e-01
1.792128391287733935e-01
1.792128391287733935e-01
1.857088269010317150e-01
1.857088269010317150e-01
1.899121131066106305e-01
1.899121131066106305e-01
1.899121131066106305e-01
1.834161253343523090e-01
1.834161253343523090e-01
1.723347344287352034e-01
1.723347344287352034e-01
1.723347344287352034e-01
1.849445930454719222e-01
1.849445930454719222e-01
1.795949560565533176e-01
1.795949560565533176e-01
1.795949560565533176e-01
1.895299961788307341e-01
1.895299961788307341e-01
1.834161253343523090e-01
1.834161253343523090e-01
1.834161253343523090e-01
1.902942300343905269e-01
1.902942300343905269e-01
1.880015284677111209e-01
1.880015284677111209e-01
1.880015284677111209e-01
1.837982422621322054e-01
